

lambda(m), Y
4e-07, 0.0940303
4.0096e-07, 0.0930226
4.0192e-07, 0.0921402
4.0288e-07, 0.0913458
4.0384e-07, 0.0906069
4.048e-07, 0.0899214
4.05761e-07, 0.0892899
4.06721e-07, 0.0887108
4.07681e-07, 0.0881929
4.08641e-07, 0.0877524
4.09601e-07, 0.0873963
4.10561e-07, 0.0871101
4.11521e-07, 0.0868644
4.12481e-07, 0.0866332
4.13441e-07, 0.0864099
4.14401e-07, 0.0862027
4.15362e-07, 0.0860111
4.16322e-07, 0.0858108
4.17282e-07, 0.0855802
4.18242e-07, 0.0853398
4.19202e-07, 0.0850893
4.20162e-07, 0.0847442
4.21122e-07, 0.08431
4.22082e-07, 0.0838842
4.23042e-07, 0.0834777
4.24002e-07, 0.0830875
4.24962e-07, 0.0825525
4.25923e-07, 0.0820931
4.26883e-07, 0.0815018
4.27843e-07, 0.0809047
4.28803e-07, 0.0803284
4.29763e-07, 0.0797426
4.30723e-07, 0.0793026
4.31683e-07, 0.0786447
4.32643e-07, 0.0781566
4.33603e-07, 0.0774868
4.34563e-07, 0.076448
4.35524e-07, 0.0743865
4.36484e-07, 0.0738299
4.37444e-07, 0.0737851
4.38404e-07, 0.0736927
4.39364e-07, 0.0736593
4.40324e-07, 0.0734935
4.41284e-07, 0.0732983
4.42244e-07, 0.0731596
4.43204e-07, 0.0729405
4.44164e-07, 0.0726589
4.45125e-07, 0.0724167
4.46085e-07, 0.0721798
4.47045e-07, 0.0718791
4.48005e-07, 0.071538
4.48965e-07, 0.0712145
4.49925e-07, 0.0709137
4.50885e-07, 0.070595
4.51845e-07, 0.0702271
4.52805e-07, 0.0698196
4.53765e-07, 0.0694177
4.54725e-07, 0.0690774
4.55686e-07, 0.0688293
4.56646e-07, 0.0686533
4.57606e-07, 0.0684873
4.58566e-07, 0.0682687
4.59526e-07, 0.0679759
4.60486e-07, 0.0676446
4.61446e-07, 0.0673512
4.62406e-07, 0.0671731
4.63366e-07, 0.0671447
4.64326e-07, 0.0672349
4.65287e-07, 0.0673617
4.66247e-07, 0.0674314
4.67207e-07, 0.0673809
4.68167e-07, 0.0672098
4.69127e-07, 0.0669977
4.70087e-07, 0.0668736
4.71047e-07, 0.0669042
4.72007e-07, 0.0670475
4.72967e-07, 0.0673048
4.73927e-07, 0.0676639
4.74887e-07, 0.0679062
4.75848e-07, 0.0680155
4.76808e-07, 0.0680454
4.77768e-07, 0.0678522
4.78728e-07, 0.0676996
4.79688e-07, 0.0674478
4.80648e-07, 0.0674449
4.81608e-07, 0.0673708
4.82568e-07, 0.067624
4.83528e-07, 0.0675891
4.84488e-07, 0.0677706
4.85449e-07, 0.0674433
4.86409e-07, 0.0670897
4.87369e-07, 0.0664279
4.88329e-07, 0.0650622
4.89289e-07, 0.0624472
4.90249e-07, 0.0592803
4.91209e-07, 0.0592736
4.92169e-07, 0.059434
4.93129e-07, 0.0596021
4.94089e-07, 0.0596795
4.9505e-07, 0.0595955
4.9601e-07, 0.0595293
4.9697e-07, 0.0594133
4.9793e-07, 0.059418
4.9889e-07, 0.0594472
4.9985e-07, 0.0595067
5.0081e-07, 0.0597046
5.0177e-07, 0.0599917
5.0273e-07, 0.0603696
5.0369e-07, 0.0607209
5.0465e-07, 0.0608563
5.05611e-07, 0.0607602
5.06571e-07, 0.0604986
5.07531e-07, 0.0601654
5.08491e-07, 0.0599423
5.09451e-07, 0.0599587
5.10411e-07, 0.0601314
5.11371e-07, 0.0602666
5.12331e-07, 0.0602836
5.13291e-07, 0.0602988
5.14251e-07, 0.0605164
5.15212e-07, 0.0610289
5.16172e-07, 0.0616832
5.17132e-07, 0.0621519
5.18092e-07, 0.0621653
5.19052e-07, 0.0617111
5.20012e-07, 0.0610117
5.20972e-07, 0.0603303
5.21932e-07, 0.0598146
5.22892e-07, 0.0594476
5.23852e-07, 0.0591066
5.24812e-07, 0.0586632
5.25773e-07, 0.0581484
5.26733e-07, 0.0578284
5.27693e-07, 0.0580462
5.28653e-07, 0.0589265
5.29613e-07, 0.060253
5.30573e-07, 0.061618
5.31533e-07, 0.0626605
5.32493e-07, 0.0631966
5.33453e-07, 0.0631976
5.34413e-07, 0.0627244
5.35374e-07, 0.0619464
5.36334e-07, 0.0611744
5.37294e-07, 0.0607496
5.38254e-07, 0.0608344
5.39214e-07, 0.0612903
5.40174e-07, 0.061781
5.41134e-07, 0.0620389
5.42094e-07, 0.0620642
5.43054e-07, 0.0621422
5.44014e-07, 0.0627129
5.44974e-07, 0.0640407
5.45935e-07, 0.0659155
5.46895e-07, 0.0678854
5.47855e-07, 0.0696268
5.48815e-07, 0.0706847
5.49775e-07, 0.0706987
5.50735e-07, 0.0703551
5.51695e-07, 0.0703875
5.52655e-07, 0.0707596
5.53615e-07, 0.0721991
5.54575e-07, 0.073914
5.55536e-07, 0.0752073
5.56496e-07, 0.0758878
5.57456e-07, 0.0759691
5.58416e-07, 0.0726684
5.59376e-07, 0.0663293
5.60336e-07, 0.064852
5.61296e-07, 0.0642231
5.62256e-07, 0.0644639
5.63216e-07, 0.0655705
5.64176e-07, 0.067293
5.65137e-07, 0.0692692
5.66097e-07, 0.0710453
5.67057e-07, 0.0723251
5.68017e-07, 0.0731299
5.68977e-07, 0.0736518
5.69937e-07, 0.0743392
5.70897e-07, 0.0752811
5.71857e-07, 0.0766749
5.72817e-07, 0.0784077
5.73777e-07, 0.080356
5.74737e-07, 0.0821138
5.75698e-07, 0.0832281
5.76658e-07, 0.083426
5.77618e-07, 0.0827368
5.78578e-07, 0.0814169
5.79538e-07, 0.0799448
5.80498e-07, 0.078846
5.81458e-07, 0.078385
5.82418e-07, 0.0785431
5.83378e-07, 0.0789207
5.84338e-07, 0.0794887
5.85299e-07, 0.0800622
5.86259e-07, 0.0811619
5.87219e-07, 0.0825865
5.88179e-07, 0.0842951
5.89139e-07, 0.0858654
5.90099e-07, 0.0869722
5.91059e-07, 0.087987
5.92019e-07, 0.0892692
5.92979e-07, 0.091456
5.93939e-07, 0.0944786
5.94899e-07, 0.0977202
5.9586e-07, 0.100526
5.9682e-07, 0.102053
5.9778e-07, 0.102016
5.9874e-07, 0.100838
5.997e-07, 0.0990193
6.0066e-07, 0.0968777
6.0162e-07, 0.094554
6.0258e-07, 0.0921378
6.0354e-07, 0.089853
6.045e-07, 0.08807
6.05461e-07, 0.0870615
6.06421e-07, 0.0868405
6.07381e-07, 0.0874117
6.08341e-07, 0.088795
6.09301e-07, 0.0904907
6.10261e-07, 0.0914802
6.11221e-07, 0.0912537
6.12181e-07, 0.0904687
6.13141e-07, 0.0901885
6.14101e-07, 0.0908899
6.15062e-07, 0.0923323
6.16022e-07, 0.093872
6.16982e-07, 0.0946384
6.17942e-07, 0.0939099
6.18902e-07, 0.0920151
6.19862e-07, 0.0905531
6.20822e-07, 0.0910822
6.21782e-07, 0.093452
6.22742e-07, 0.095844
6.23702e-07, 0.0962977
6.24662e-07, 0.0938101
6.25623e-07, 0.0888241
6.26583e-07, 0.083268
6.27543e-07, 0.07951
6.28503e-07, 0.0787468
6.29463e-07, 0.0804555
6.30423e-07, 0.0832456
6.31383e-07, 0.0859456
6.32343e-07, 0.0879164
6.33303e-07, 0.0889378
6.34263e-07, 0.089301
6.35224e-07, 0.0895392
6.36184e-07, 0.0899795
6.37144e-07, 0.0907764
6.38104e-07, 0.0919647
6.39064e-07, 0.0931552
6.40024e-07, 0.0934744
6.40984e-07, 0.0919382
6.41944e-07, 0.0879209
6.42904e-07, 0.0815797
6.43864e-07, 0.0739779
6.44824e-07, 0.066999
6.45785e-07, 0.062602
6.46745e-07, 0.0613465
6.47705e-07, 0.0623957
6.48665e-07, 0.0654537
6.49625e-07, 0.0698132
6.50585e-07, 0.0749772
6.51545e-07, 0.0740595
6.52505e-07, 0.07667
6.53465e-07, 0.0794213
6.54425e-07, 0.0815125
6.55386e-07, 0.0822601
6.56346e-07, 0.0808337
6.57306e-07, 0.0769594
6.58266e-07, 0.0720614
6.59226e-07, 0.0689316
6.60186e-07, 0.0699477
6.61146e-07, 0.0751771
6.62106e-07, 0.0822434
6.63066e-07, 0.0882749
6.64026e-07, 0.0920961
6.64986e-07, 0.0945128
6.65947e-07, 0.0960619
6.66907e-07, 0.0956922
6.67867e-07, 0.0931253
6.68827e-07, 0.089625
6.69787e-07, 0.0857665
6.70747e-07, 0.0818884
6.71707e-07, 0.0794662
6.72667e-07, 0.0791204
6.73627e-07, 0.0793373
6.74587e-07, 0.0789611
6.75548e-07, 0.0780384
6.76508e-07, 0.0764233
6.77468e-07, 0.0736241
6.78428e-07, 0.0699821
6.79388e-07, 0.0671788
6.80348e-07, 0.0670063
6.81308e-07, 0.0701031
6.82268e-07, 0.0762616
6.83228e-07, 0.0851494
6.84188e-07, 0.0965751
6.85149e-07, 0.109299
6.86109e-07, 0.120108
6.87069e-07, 0.125682
6.88029e-07, 0.124235
6.88989e-07, 0.116187
6.89949e-07, 0.104524
6.90909e-07, 0.0939515
6.91869e-07, 0.0882926
6.92829e-07, 0.0881659
6.93789e-07, 0.0918565
6.94749e-07, 0.0973567
6.9571e-07, 0.10248
6.9667e-07, 0.104951
6.9763e-07, 0.104199
6.9859e-07, 0.102336
6.9955e-07, 0.102445
7.0051e-07, 0.105594
7.0147e-07, 0.109424
7.0243e-07, 0.111792
7.0339e-07, 0.114447
7.0435e-07, 0.120864
7.05311e-07, 0.131084
7.06271e-07, 0.141585
7.07231e-07, 0.150279
7.08191e-07, 0.156095
7.09151e-07, 0.156059
7.10111e-07, 0.148737
7.11071e-07, 0.136222
7.12031e-07, 0.122677
7.12991e-07, 0.113372
7.13951e-07, 0.112211
7.14911e-07, 0.119537
7.15872e-07, 0.132463
7.16832e-07, 0.148875
7.17792e-07, 0.167661
7.18752e-07, 0.186572
7.19712e-07, 0.204162
7.20672e-07, 0.220749
7.21632e-07, 0.236265
7.22592e-07, 0.247928
7.23552e-07, 0.253664
7.24512e-07, 0.252852
7.25473e-07, 0.250966
7.26433e-07, 0.254247
7.27393e-07, 0.262649
7.28353e-07, 0.269341
7.29313e-07, 0.268109
7.30273e-07, 0.258021
7.31233e-07, 0.238889
7.32193e-07, 0.213601
7.33153e-07, 0.183995
7.34113e-07, 0.154973
7.35074e-07, 0.1318
7.36034e-07, 0.121642
7.36994e-07, 0.126628
7.37954e-07, 0.143875
7.38914e-07, 0.167478
7.39874e-07, 0.190388
7.40834e-07, 0.207728
7.41794e-07, 0.215728
7.42754e-07, 0.216588
7.43714e-07, 0.211805
7.44674e-07, 0.203557
7.45635e-07, 0.190479
7.46595e-07, 0.174763
7.47555e-07, 0.162364
7.48515e-07, 0.16098
7.49475e-07, 0.168971
7.50435e-07, 0.181498
7.51395e-07, 0.200441
7.52355e-07, 0.226426
7.53315e-07, 0.253696
7.54275e-07, 0.274981
7.55236e-07, 0.288194
7.56196e-07, 0.291932
7.57156e-07, 0.289613
7.58116e-07, 0.288184
7.59076e-07, 0.295303
7.60036e-07, 0.309651
7.60996e-07, 0.323324
7.61956e-07, 0.333204
7.62916e-07, 0.337795
7.63876e-07, 0.339458
7.64836e-07, 0.341511
7.65797e-07, 0.347576
7.66757e-07, 0.359589
7.67717e-07, 0.373653
7.68677e-07, 0.388909
7.69637e-07, 0.404213
7.70597e-07, 0.415468
7.71557e-07, 0.421846
7.72517e-07, 0.422367
7.73477e-07, 0.416573
7.74437e-07, 0.405268
7.75398e-07, 0.389632
7.76358e-07, 0.376759
7.77318e-07, 0.373248
7.78278e-07, 0.374525
7.79238e-07, 0.375056
7.80198e-07, 0.36337
7.81158e-07, 0.342786
7.82118e-07, 0.33245
7.83078e-07, 0.318455
7.84038e-07, 0.298435
7.84998e-07, 0.273718
7.85959e-07, 0.245968
7.86919e-07, 0.219763
7.87879e-07, 0.204579
7.88839e-07, 0.208491
7.89799e-07, 0.227588
7.90759e-07, 0.248628
7.91719e-07, 0.265488
7.92679e-07, 0.279654
7.93639e-07, 0.292175
7.94599e-07, 0.304923
7.9556e-07, 0.320386
7.9652e-07, 0.336045
7.9748e-07, 0.346678
7.9844e-07, 0.349425
7.994e-07, 0.343746
8.0036e-07, 0.328879
8.0132e-07, 0.305073
8.0228e-07, 0.280746
8.0324e-07, 0.276975
8.042e-07, 0.30576
8.05161e-07, 0.349612
8.06121e-07, 0.388117
8.07081e-07, 0.415097
8.08041e-07, 0.431755
8.09001e-07, 0.440419
8.09961e-07, 0.443197
8.10921e-07, 0.442266
8.11881e-07, 0.439906
8.12841e-07, 0.437844
8.13801e-07, 0.437016
8.14761e-07, 0.440105
8.15722e-07, 0.449346
8.16682e-07, 0.461522
8.17642e-07, 0.472009
8.18602e-07, 0.477377
8.19562e-07, 0.477048
8.20522e-07, 0.474525
8.21482e-07, 0.473435
8.22442e-07, 0.47437
8.23402e-07, 0.477197
8.24362e-07, 0.483513
8.25323e-07, 0.49323
8.26283e-07, 0.503832
8.27243e-07, 0.513435
8.28203e-07, 0.520695
8.29163e-07, 0.525391
8.30123e-07, 0.527917
8.31083e-07, 0.52753
8.32043e-07, 0.522686
8.33003e-07, 0.512314
8.33963e-07, 0.49896
8.34923e-07, 0.490046
8.35884e-07, 0.485735
8.36844e-07, 0.47978
8.37804e-07, 0.468906
8.38764e-07, 0.449008
8.39724e-07, 0.417633
8.40684e-07, 0.376309
8.41644e-07, 0.335107
8.42604e-07, 0.310798
8.43564e-07, 0.303442
8.44524e-07, 0.296286
8.45485e-07, 0.283486
8.46445e-07, 0.272243
8.47405e-07, 0.274393
8.48365e-07, 0.297183
8.49325e-07, 0.335736
8.50285e-07, 0.377315
8.51245e-07, 0.412206
8.52205e-07, 0.437447
8.53165e-07, 0.454215
8.54125e-07, 0.465892
8.55086e-07, 0.476458
8.56046e-07, 0.486138
8.57006e-07, 0.493731
8.57966e-07, 0.500882
8.58926e-07, 0.508988
8.59886e-07, 0.515511
8.60846e-07, 0.520093
8.61806e-07, 0.52537
8.62766e-07, 0.53038
8.63726e-07, 0.532939
8.64686e-07, 0.531964
8.65647e-07, 0.526192
8.66607e-07, 0.513324
8.67567e-07, 0.490276
8.68527e-07, 0.456295
8.69487e-07, 0.419699
8.70447e-07, 0.402456
8.71407e-07, 0.415608
8.72367e-07, 0.442663
8.73327e-07, 0.467596
8.74287e-07, 0.485443
8.75248e-07, 0.496146
8.76208e-07, 0.50064
8.77168e-07, 0.499995
8.78128e-07, 0.49528
8.79088e-07, 0.485303
8.80048e-07, 0.465689
8.81008e-07, 0.433262
8.81968e-07, 0.395715
8.82928e-07, 0.384767
8.83888e-07, 0.412238
8.84848e-07, 0.445002
8.85809e-07, 0.463921
8.86769e-07, 0.46729
8.87729e-07, 0.458293
8.88689e-07, 0.446498
8.89649e-07, 0.446656
8.90609e-07, 0.461301
8.91569e-07, 0.47606
8.92529e-07, 0.477676
8.93489e-07, 0.466274
8.94449e-07, 0.464657
8.9541e-07, 0.492877
8.9637e-07, 0.530241
8.9733e-07, 0.557296
8.9829e-07, 0.572284
8.9925e-07, 0.579991
9.0021e-07, 0.587041
9.0117e-07, 0.594117
9.0213e-07, 0.598719
9.0309e-07, 0.600383
9.0405e-07, 0.599244
9.05011e-07, 0.594614
9.05971e-07, 0.584714
9.06931e-07, 0.567015
9.07891e-07, 0.541351
9.08851e-07, 0.519073
9.09811e-07, 0.512875
9.10771e-07, 0.510219
9.11731e-07, 0.499971
9.12691e-07, 0.483659
9.13651e-07, 0.466687
9.14611e-07, 0.453764
9.15572e-07, 0.446452
9.16532e-07, 0.442985
9.17492e-07, 0.440052
9.18452e-07, 0.436789
9.19412e-07, 0.442206
9.20372e-07, 0.464129
9.21332e-07, 0.492964
9.22292e-07, 0.519749
9.23252e-07, 0.542037
9.24212e-07, 0.559428
9.25173e-07, 0.571793
9.26133e-07, 0.578935
9.27093e-07, 0.580421
9.28053e-07, 0.575344
9.29013e-07, 0.561998
9.29973e-07, 0.537608
9.30933e-07, 0.499086
9.31893e-07, 0.446803
9.32853e-07, 0.386387
9.33813e-07, 0.327632
9.34773e-07, 0.297365
9.35734e-07, 0.318751
9.36694e-07, 0.373234
9.37654e-07, 0.42772
9.38614e-07, 0.467329
9.39574e-07, 0.491093
9.40534e-07, 0.501605
9.41494e-07, 0.501027
9.42454e-07, 0.48937
9.43414e-07, 0.46357
9.44374e-07, 0.420584
9.45335e-07, 0.365964
9.46295e-07, 0.329082
9.47255e-07, 0.337645
9.48215e-07, 0.370282
9.49175e-07, 0.40159
9.50135e-07, 0.425902
9.51095e-07, 0.442317
9.52055e-07, 0.450894
9.53015e-07, 0.453437
9.53975e-07, 0.453251
9.54935e-07, 0.454118
9.55896e-07, 0.458829
9.56856e-07, 0.467912
9.57816e-07, 0.479545
9.58776e-07, 0.490564
9.59736e-07, 0.497493
9.60696e-07, 0.496933
9.61656e-07, 0.486843
9.62616e-07, 0.47373
9.63576e-07, 0.476744
9.64536e-07, 0.491188
9.65497e-07, 0.489052
9.66457e-07, 0.464101
9.67417e-07, 0.444293
9.68377e-07, 0.467743
9.69337e-07, 0.515201
9.70297e-07, 0.553608
9.71257e-07, 0.577896
9.72217e-07, 0.590952
9.73177e-07, 0.593666
9.74137e-07, 0.586505
9.75098e-07, 0.56874
9.76058e-07, 0.536863
9.77018e-07, 0.481093
9.77978e-07, 0.396295
9.78938e-07, 0.286633
9.79898e-07, 0.206732
9.80858e-07, 0.234428
9.81818e-07, 0.319801
9.82778e-07, 0.36853
9.83738e-07, 0.436091
9.84698e-07, 0.529498
9.85659e-07, 0.592767
9.86619e-07, 0.626924
9.87579e-07, 0.639171
9.88539e-07, 0.632631
9.89499e-07, 0.620386
9.90459e-07, 0.605572
9.91419e-07, 0.597334
9.92379e-07, 0.618272
9.93339e-07, 0.639047
9.94299e-07, 0.641839
9.9526e-07, 0.626595
9.9622e-07, 0.594124
9.9718e-07, 0.545659
9.9814e-07, 0.489184
9.991e-07, 0.445155
1.00006e-06, 0.434926
1.00102e-06, 0.456771
1.00198e-06, 0.49058
1.00294e-06, 0.520671
1.0039e-06, 0.541974
1.00486e-06, 0.555085
1.00582e-06, 0.561942
1.00678e-06, 0.564098
1.00774e-06, 0.562454
1.0087e-06, 0.557142
1.00966e-06, 0.546916
1.01062e-06, 0.528701
1.01158e-06, 0.500319
1.01254e-06, 0.473168
1.0135e-06, 0.475413
1.01446e-06, 0.502099
1.01542e-06, 0.5251
1.01638e-06, 0.535675
1.01734e-06, 0.535424
1.0183e-06, 0.526682
1.01926e-06, 0.511155
1.02022e-06, 0.491439
1.02118e-06, 0.471441
1.02214e-06, 0.452117
1.0231e-06, 0.428759
1.02406e-06, 0.395788
1.02502e-06, 0.35166
1.02598e-06, 0.300241
1.02694e-06, 0.250224
1.0279e-06, 0.212219
1.02886e-06, 0.19252
1.02982e-06, 0.188314
1.03078e-06, 0.196271
1.03174e-06, 0.22734
1.0327e-06, 0.286364
1.03366e-06, 0.352058
1.03462e-06, 0.405773
1.03558e-06, 0.443572
1.03654e-06, 0.467566
1.0375e-06, 0.479831
1.03846e-06, 0.481687
1.03942e-06, 0.474692
1.04038e-06, 0.460364
1.04134e-06, 0.439312
1.0423e-06, 0.413077
1.04326e-06, 0.396297
1.04422e-06, 0.40544
1.04518e-06, 0.433726
1.04614e-06, 0.469782
1.0471e-06, 0.504308
1.04806e-06, 0.533066
1.04902e-06, 0.555212
1.04998e-06, 0.570766
1.05095e-06, 0.580936
1.05191e-06, 0.587761
1.05287e-06, 0.5918
1.05383e-06, 0.592246
1.05479e-06, 0.58947
1.05575e-06, 0.584635
1.05671e-06, 0.57764
1.05767e-06, 0.568548
1.05863e-06, 0.558832
1.05959e-06, 0.548736
1.06055e-06, 0.536243
1.06151e-06, 0.519988
1.06247e-06, 0.499587
1.06343e-06, 0.472352
1.06439e-06, 0.434115
1.06535e-06, 0.382734
1.06631e-06, 0.318918
1.06727e-06, 0.252636
1.06823e-06, 0.211409
1.06919e-06, 0.220325
1.07015e-06, 0.269918
1.07111e-06, 0.328298
1.07207e-06, 0.370927
1.07303e-06, 0.385746
1.07399e-06, 0.368942
1.07495e-06, 0.333043
1.07591e-06, 0.316329
1.07687e-06, 0.345318
1.07783e-06, 0.396614
1.07879e-06, 0.439723
1.07975e-06, 0.465084
1.08071e-06, 0.473447
1.08167e-06, 0.46781
1.08263e-06, 0.452407
1.08359e-06, 0.431544
1.08455e-06, 0.410103
1.08551e-06, 0.394391
1.08647e-06, 0.388646
1.08743e-06, 0.393565
1.08839e-06, 0.408785
1.08935e-06, 0.431697
1.09031e-06, 0.457882
1.09127e-06, 0.485113
1.09223e-06, 0.51172
1.09319e-06, 0.53515
1.09415e-06, 0.554887
1.09511e-06, 0.570743
1.09607e-06, 0.580883
1.09703e-06, 0.584301
1.09799e-06, 0.579472
1.09895e-06, 0.562706
1.09991e-06, 0.532366
1.10087e-06, 0.497061
1.10183e-06, 0.481544
1.10279e-06, 0.494163
1.10375e-06, 0.514201
1.10471e-06, 0.538923
1.10567e-06, 0.558432
1.10663e-06, 0.56856
1.10759e-06, 0.57092
1.10855e-06, 0.568641
1.10951e-06, 0.564365
1.11047e-06, 0.558701
1.11143e-06, 0.553465
1.11239e-06, 0.549241
1.11335e-06, 0.545986
1.11431e-06, 0.544352
1.11527e-06, 0.543391
1.11623e-06, 0.542854
1.11719e-06, 0.542002
1.11815e-06, 0.539738
1.11911e-06, 0.535998
1.12007e-06, 0.529938
1.12103e-06, 0.522349
1.12199e-06, 0.513887
1.12295e-06, 0.505359
1.12391e-06, 0.498333
1.12487e-06, 0.492031
1.12583e-06, 0.486571
1.12679e-06, 0.480699
1.12775e-06, 0.472752
1.12871e-06, 0.462557
1.12967e-06, 0.448674
1.13063e-06, 0.431054
1.13159e-06, 0.410171
1.13255e-06, 0.386015
1.13351e-06, 0.359691
1.13447e-06, 0.331947
1.13543e-06, 0.302758
1.13639e-06, 0.27397
1.13735e-06, 0.248563
1.13831e-06, 0.232342
1.13927e-06, 0.233302
1.14023e-06, 0.254903
1.14119e-06, 0.295544
1.14215e-06, 0.347916
1.14311e-06, 0.403063
1.14407e-06, 0.455229
1.14503e-06, 0.500509
1.14599e-06, 0.537483
1.14695e-06, 0.566073
1.14791e-06, 0.585448
1.14887e-06, 0.595057
1.14983e-06, 0.592135
1.1508e-06, 0.571248
1.15176e-06, 0.523303
1.15272e-06, 0.445447
1.15368e-06, 0.387214
1.15464e-06, 0.429553
1.1556e-06, 0.520134
1.15656e-06, 0.586919
1.15752e-06, 0.625199
1.15848e-06, 0.643502
1.15944e-06, 0.650347
1.1604e-06, 0.648048
1.16136e-06, 0.638824
1.16232e-06, 0.623738
1.16328e-06, 0.601183
1.16424e-06, 0.573056
1.1652e-06, 0.537203
1.16616e-06, 0.495587
1.16712e-06, 0.451562
1.16808e-06, 0.409698
1.16904e-06, 0.382652
1.17e-06, 0.374195
1.17096e-06, 0.381316
1.17192e-06, 0.384277
1.17288e-06, 0.392511
1.17384e-06, 0.467596
1.1748e-06, 0.557983
1.17576e-06, 0.614398
1.17672e-06, 0.643193
1.17768e-06, 0.656255
1.17864e-06, 0.660552
1.1796e-06, 0.657565
1.18056e-06, 0.652084
1.18152e-06, 0.642949
1.18248e-06, 0.633185
1.18344e-06, 0.623269
1.1844e-06, 0.61312
1.18536e-06, 0.605694
1.18632e-06, 0.59845
1.18728e-06, 0.594934
1.18824e-06, 0.592397
1.1892e-06, 0.592702
1.19016e-06, 0.594798
1.19112e-06, 0.598059
1.19208e-06, 0.603371
1.19304e-06, 0.60836
1.194e-06, 0.614774
1.19496e-06, 0.619849
1.19592e-06, 0.62505
1.19688e-06, 0.628259
1.19784e-06, 0.630195
1.1988e-06, 0.629711
1.19976e-06, 0.626847
1.20072e-06, 0.621205
1.20168e-06, 0.61229
1.20264e-06, 0.600061
1.2036e-06, 0.583504
1.20456e-06, 0.56265
1.20552e-06, 0.536202
1.20648e-06, 0.50489
1.20744e-06, 0.469453
1.2084e-06, 0.435858
1.20936e-06, 0.413539
1.21032e-06, 0.414147
1.21128e-06, 0.437689
1.21224e-06, 0.469739
1.2132e-06, 0.49529
1.21416e-06, 0.509376
1.21512e-06, 0.517618
1.21608e-06, 0.525731
1.21704e-06, 0.538433
1.218e-06, 0.555177
1.21896e-06, 0.574249
1.21992e-06, 0.593234
1.22088e-06, 0.610226
1.22184e-06, 0.624902
1.2228e-06, 0.636381
1.22376e-06, 0.645519
1.22472e-06, 0.651857
1.22568e-06, 0.656373
1.22664e-06, 0.658871
1.2276e-06, 0.660083
1.22856e-06, 0.660083
1.22952e-06, 0.659399
1.23048e-06, 0.658194
1.23144e-06, 0.656945
1.2324e-06, 0.655473
1.23336e-06, 0.654376
1.23432e-06, 0.652745
1.23528e-06, 0.651622
1.23624e-06, 0.649276
1.2372e-06, 0.647523
1.23816e-06, 0.643858
1.23912e-06, 0.640961
1.24008e-06, 0.635677
1.24104e-06, 0.631396
1.242e-06, 0.624572
1.24296e-06, 0.619015
1.24392e-06, 0.611167
1.24488e-06, 0.604871
1.24584e-06, 0.596918
1.2468e-06, 0.590609
1.24776e-06, 0.583116
1.24872e-06, 0.575978
1.24968e-06, 0.565482
1.25065e-06, 0.547554
1.25161e-06, 0.512146
1.25257e-06, 0.453695
1.25353e-06, 0.424062
1.25449e-06, 0.472194
1.25545e-06, 0.535354
1.25641e-06, 0.581421
1.25737e-06, 0.613586
1.25833e-06, 0.636793
1.25929e-06, 0.65572
1.26025e-06, 0.66997
1.26121e-06, 0.683374
1.26217e-06, 0.692699
1.26313e-06, 0.702753
1.26409e-06, 0.708116
1.26505e-06, 0.715193
1.26601e-06, 0.716439
