lambda,signal,smoothed_signal_tv_0.5_1000
4e-07,0.106123,0.10335327432878164
4.0048e-07,0.10538,0.10335496436035499
4.0096e-07,0.10475,0.1033583431825864
4.0144e-07,0.104386,0.10336340827428821
4.0192e-07,0.104346,0.10337015591210807
4.024e-07,0.104575,0.103378581070026
4.0288e-07,0.104931,0.10338867757473051
4.0336e-07,0.105224,0.10340043793938325
4.0384e-07,0.105278,0.10341385359455833
4.0432e-07,0.10498,0.10342891465811237
4.048e-07,0.104311,0.10344561023917984
4.05281e-07,0.10335,0.10346392814665314
4.05761e-07,0.102247,0.10348385526297481
4.06241e-07,0.101181,0.10350537719434277
4.06721e-07,0.100312,0.10352847871034772
4.07201e-07,0.099741,0.10355314333956521
4.07681e-07,0.0994877,0.10357935387046105
4.08161e-07,0.0994859,0.10360709189650769
4.08641e-07,0.0996066,0.10363633837322896
4.09121e-07,0.0996964,0.10366707311737816
4.09601e-07,0.0996204,0.10369927541452169
4.10081e-07,0.0992988,0.10373292347713696
4.10561e-07,0.0987276,0.10376799509674656
4.11041e-07,0.0979821,0.10380446706603413
4.11521e-07,0.0971992,0.10384231586923978
4.12001e-07,0.0965371,0.1038815170735515
4.12481e-07,0.0961238,0.10392204605125994
4.12961e-07,0.0960335,0.10396387734576408
4.13441e-07,0.0963012,0.10400698541885939
4.13921e-07,0.0968903,0.10405134399670228
4.14401e-07,0.0976649,0.10409692683556995
4.14881e-07,0.0985275,0.10414370705306282
4.15362e-07,0.0993428,0.10419165790572439
4.15842e-07,0.100028,0.10424075211063111
4.16322e-07,0.100539,0.10429096262839334
4.16802e-07,0.100894,0.10434226198009353
4.17282e-07,0.101163,0.10439462302940139
4.17762e-07,0.101443,0.104448018299581
4.18242e-07,0.101833,0.10450242074873947
4.18722e-07,0.102407,0.10455780309133984
4.19202e-07,0.103192,0.10461413856095626
4.19682e-07,0.104161,0.10467140024041001
4.20162e-07,0.105237,0.10472956180682
4.20642e-07,0.106311,0.10478859687413071
4.21122e-07,0.107266,0.10484847971571785
4.21602e-07,0.108006,0.10490918462270708
4.22082e-07,0.108475,0.10497068659991232
4.22562e-07,0.108672,0.10503296074296091
4.23042e-07,0.108647,0.10509598290389847
4.23522e-07,0.108491,0.10515972908974479
4.24002e-07,0.108316,0.10522417609468608
4.24482e-07,0.108227,0.10528930092229319
4.24962e-07,0.108301,0.10535508138183024
4.25443e-07,0.108567,0.10542149553597714
4.25923e-07,0.108998,0.1054885222594049
4.26403e-07,0.109522,0.10555614071346192
4.26883e-07,0.110042,0.10562433086579098
4.27363e-07,0.110463,0.10569307299306802
4.27843e-07,0.110717,0.10576234816105477
4.28323e-07,0.110777,0.10583213775612128
4.28803e-07,0.110656,0.10590242392573378
4.29283e-07,0.110397,0.10597318913914967
4.29763e-07,0.110051,0.1060444165889238
4.30243e-07,0.109671,0.10611608978083904
4.30723e-07,0.109298,0.10618819289756674
4.31203e-07,0.108971,0.10626071041758778
4.31683e-07,0.108727,0.10633362744265845
4.32163e-07,0.108598,0.10640692934518564
4.32643e-07,0.108592,0.10648060206162058
4.33123e-07,0.108674,0.10655463176747706
4.33603e-07,0.108764,0.1066290051391971
4.34083e-07,0.108754,0.1067037090557428
4.34563e-07,0.108551,0.10677873083184383
4.35044e-07,0.108121,0.10685405794485117
4.35524e-07,0.107503,0.10692967824258347
4.36004e-07,0.10678,0.10700557969390265
4.36484e-07,0.106036,0.10708175057462171
4.36964e-07,0.105318,0.10715817924004833
4.37444e-07,0.104645,0.10723485429259805
4.37924e-07,0.104036,0.10731176437435187
4.38404e-07,0.103542,0.10738889832013575
4.38884e-07,0.10323,0.1074662449679518
4.39364e-07,0.103132,0.10754379330133779
4.39844e-07,0.103205,0.10762153227535867
4.40324e-07,0.103345,0.1076994509520507
4.40804e-07,0.103449,0.10777753833950135
4.41284e-07,0.103479,0.10785578352411314
4.41764e-07,0.103467,0.10793417552015754
4.42244e-07,0.103456,0.10801270340246819
4.42724e-07,0.103449,0.1080913561637279
4.43204e-07,0.103412,0.10817012285102467
4.43684e-07,0.103342,0.10824899242802355
4.44164e-07,0.103317,0.10832795391859566
4.44644e-07,0.103454,0.10840699627094105
4.45125e-07,0.103821,0.1084861085112381
4.45605e-07,0.104373,0.10856527960672073
4.46085e-07,0.105009,0.10864449863199989
4.46565e-07,0.105669,0.10872375462806227
4.47045e-07,0.106368,0.10880303678359371
4.47525e-07,0.107116,0.10888233428685933
4.48005e-07,0.107834,0.10896163652401838
4.48485e-07,0.108387,0.10904093292087023
4.48965e-07,0.108717,0.10912021315979868
4.49445e-07,0.108902,0.10919946700842717
4.49925e-07,0.109061,0.10927868455647552
4.50405e-07,0.109218,0.10935785602846297
4.50885e-07,0.10932,0.1094369720414091
4.51365e-07,0.109375,0.1095160233988564
4.51845e-07,0.109506,0.10959500137000634
4.52325e-07,0.109821,0.10967389746250618
4.52805e-07,0.110272,0.10975270372328666
4.53285e-07,0.110718,0.10983141248777015
4.53765e-07,0.111114,0.109910016702375
4.54245e-07,0.111532,0.1099885096480538
4.54725e-07,0.111988,0.11006688528415448
4.55206e-07,0.112351,0.11014513794448788
4.55686e-07,0.112504,0.11022326270199209
4.56166e-07,0.112502,0.11030125503585421
4.56646e-07,0.112483,0.11037911121621521
4.57126e-07,0.112458,0.11045682794122932
4.57606e-07,0.112341,0.11053440274087377
4.58086e-07,0.11216,0.11061183358321602
4.58566e-07,0.112088,0.11068911929625723
4.59046e-07,0.112219,0.11076625914308758
4.59526e-07,0.112454,0.11084325326059415
4.60006e-07,0.112713,0.1109201022036122
4.60486e-07,0.113084,0.11099680739926615
4.60966e-07,0.113643,0.11107337066066235
4.61446e-07,0.114257,0.11114979465560487
4.61926e-07,0.114755,0.11122608239081604
4.62406e-07,0.115171,0.11130223769377327
4.62886e-07,0.115599,0.11137826466887918
4.63366e-07,0.115942,0.1114541681911987
4.63846e-07,0.116049,0.11152995333642281
4.64326e-07,0.115996,0.11160562588534217
4.64806e-07,0.115951,0.1116811917298488
4.65287e-07,0.115884,0.11175665738705885
4.65767e-07,0.115691,0.1118320293839668
4.66247e-07,0.11549,0.1119073147802205
4.66727e-07,0.115457,0.11198252053437412
4.67207e-07,0.115528,0.11205765403441828
4.67687e-07,0.115555,0.11213272244886399
4.68167e-07,0.11562,0.11220773326423304
4.68647e-07,0.115824,0.11228269362443871
4.69127e-07,0.115997,0.11235761087454238
4.69607e-07,0.115968,0.11243249189207141
4.70087e-07,0.115858,0.11250734363644105
4.70567e-07,0.115733,0.11258217247596167
4.71047e-07,0.115396,0.11265698474240582
4.71527e-07,0.114819,0.11273178605750202
4.72007e-07,0.114234,0.11280658189219105
4.72487e-07,0.113659,0.11288137689637959
4.72967e-07,0.112949,0.112956175462474
4.73447e-07,0.112231,0.11303098106207372
4.73927e-07,0.111713,0.11310579681339171
4.74407e-07,0.111279,0.11318062482840593
4.74887e-07,0.110809,0.113255466783771
4.75368e-07,0.110495,0.1133303232817193
4.75848e-07,0.110359,0.1134051944240369
4.76328e-07,0.110137,0.11348007918971731
4.76808e-07,0.109861,0.1135549760115174
4.77288e-07,0.109697,0.11362988217302168
4.77768e-07,0.109452,0.11370479438721123
4.78248e-07,0.109008,0.11377970821520263
4.78728e-07,0.108585,0.11385461864615593
4.79208e-07,0.108203,0.11392951953951806
4.79688e-07,0.107661,0.11400440420546851
4.80168e-07,0.107135,0.11407926487203109
4.80648e-07,0.10683,0.11415409326511129
4.81128e-07,0.10654,0.1142288801013535
4.81608e-07,0.10631,0.11430361566666714
4.82088e-07,0.106375,0.11437828933520876
4.82568e-07,0.106607,0.11445289014513037
4.83048e-07,0.10687,0.11452740634356892
4.83528e-07,0.107381,0.11460182595818541
4.84008e-07,0.108074,0.11467613636755915
4.84488e-07,0.108715,0.11475032486692645
4.84968e-07,0.109453,0.11482437826291539
4.85449e-07,0.110295,0.1148982834317443
4.85929e-07,0.110945,0.11497202693680475
4.86409e-07,0.111513,0.11504559557744971
4.86889e-07,0.112123,0.11511897602754788
4.87369e-07,0.112524,0.11519215537288506
4.87849e-07,0.112801,0.11526512076848143
4.88329e-07,0.113186,0.11533785996255315
4.88809e-07,0.113486,0.11541036097011322
4.89289e-07,0.113753,0.11548261258139854
4.89769e-07,0.114261,0.11555460404907156
4.90249e-07,0.114828,0.11562632557901548
4.90729e-07,0.115437,0.1156977680283226
4.91209e-07,0.116338,0.11576892337640053
4.91689e-07,0.117313,0.11583978443087735
4.92169e-07,0.118273,0.11591034527704648
4.92649e-07,0.119433,0.11598060098884082
4.93129e-07,0.120545,0.11605054805477438
4.93609e-07,0.121495,0.1161201840912362
4.94089e-07,0.122497,0.11618950824326328
4.94569e-07,0.123306,0.11625852089757893
4.9505e-07,0.123854,0.11632722405675183
4.9553e-07,0.124387,0.11639562104964857
4.9601e-07,0.124687,0.11646371687779487
4.9649e-07,0.124768,0.1165315179212234
4.9697e-07,0.124908,0.1165990322561515
4.9745e-07,0.12489,0.11666626935457465
4.9793e-07,0.124807,0.11673324037270526
4.9841e-07,0.1249,0.11679995784308245
4.9889e-07,0.124915,0.116866435933571
4.9937e-07,0.124985,0.11693269013121868
4.9985e-07,0.12525,0.11699873747198743
5.0033e-07,0.125396,0.11706459621607962
5.0081e-07,0.125599,0.11713028604895584
5.0129e-07,0.125866,0.1171958277483603
5.0177e-07,0.12588,0.11726124335756223
5.0225e-07,0.125897,0.117326555844826
5.0273e-07,0.12579,0.11739178925018759
5.0321e-07,0.125357,0.11745696833862462
5.0369e-07,0.124931,0.11752211872203595
5.0417e-07,0.124264,0.11758726650785865
5.0465e-07,0.123378,0.11765243839824865
5.05131e-07,0.122575,0.11771766133635411
5.05611e-07,0.121536,0.1177829625849895
5.06091e-07,0.120524,0.11784836937319625
5.06571e-07,0.119643,0.11791390895695325
5.07051e-07,0.118622,0.11797960826902736
5.07531e-07,0.117855,0.11804549396446194
5.08011e-07,0.11716,0.1181115920770315
5.08491e-07,0.116463,0.1181779280523918
5.08971e-07,0.116078,0.11824452641469692
5.09451e-07,0.115622,0.11831141079037338
5.09931e-07,0.11529,0.11837860358862892
5.10411e-07,0.115108,0.11844612601882508
5.10891e-07,0.114752,0.11851399778869998
5.11371e-07,0.114561,0.11858223711825724
5.11851e-07,0.114254,0.11865086045953734
5.12331e-07,0.113819,0.11871988250981402
5.12811e-07,0.113483,0.11878931595667978
5.13291e-07,0.112885,0.11885917149314588
5.13771e-07,0.112346,0.11892945759165725
5.14251e-07,0.111782,0.11900018052343055
5.14731e-07,0.111083,0.11907134416478637
5.15212e-07,0.110602,0.11914295002273549
5.15692e-07,0.11002,0.11921499707671528
5.16172e-07,0.109594,0.11928748181205333
5.16652e-07,0.10934,0.11936039809982653
5.17132e-07,0.109059,0.11943373723940125
5.17612e-07,0.109098,0.11950748787870465
5.18092e-07,0.109134,0.11958163606656927
5.18572e-07,0.109342,0.11965616521522647
5.19052e-07,0.109746,0.11973105616268023
5.19532e-07,0.110104,0.1198062871787114
5.20012e-07,0.110735,0.11988183403698136
5.20492e-07,0.111305,0.11995767006528385
5.20972e-07,0.111979,0.1200337662265451
5.21452e-07,0.112742,0.12011009121348827
5.21932e-07,0.11338,0.1201866115371643
5.22412e-07,0.114179,0.12026329166561447
5.22892e-07,0.114809,0.12034009411804734
5.23372e-07,0.115483,0.12041697964650895
5.23852e-07,0.116134,0.12049390733332727
5.24332e-07,0.11666,0.12057083481423894
5.24812e-07,0.11731,0.12064771837626584
5.25293e-07,0.117806,0.12072451322021156
5.25773e-07,0.118419,0.12080117355572617
5.26253e-07,0.119015,0.1208776529005864
5.26733e-07,0.119602,0.12095390416935302
5.27213e-07,0.120321,0.12102988000639571
5.27693e-07,0.12093,0.12110553286426248
5.28173e-07,0.12168,0.12118081536701074
5.28653e-07,0.122336,0.12125568037419761
5.29133e-07,0.122994,0.12133008137074085
5.29613e-07,0.123651,0.12140397251230825
5.30093e-07,0.12415,0.12147730903766137
5.30573e-07,0.124714,0.12155004729117644
5.31053e-07,0.125078,0.12162214515342488
5.31533e-07,0.125483,0.12169356203659992
5.32013e-07,0.125796,0.12176425932896331
5.32493e-07,0.126064,0.12183420035908195
5.32973e-07,0.126414,0.12190335084972258
5.33453e-07,0.126656,0.12197167884701977
5.33933e-07,0.127102,0.12203915517942883
5.34413e-07,0.127458,0.12210575334824866
5.34893e-07,0.128018,0.12217144998734653
5.35374e-07,0.128585,0.12223622471184088
5.35854e-07,0.129238,0.12230006057448857
5.36334e-07,0.130015,0.12236294386978695
5.36814e-07,0.130717,0.12242486458315978
5.37294e-07,0.131597,0.12248581614825794
5.37774e-07,0.132276,0.1225457958853898
5.38254e-07,0.133086,0.12260480471037566
5.38734e-07,0.133648,0.12266284755903584
5.39214e-07,0.134207,0.12271993304657472
5.39694e-07,0.134554,0.12277607387535933
5.40174e-07,0.134735,0.12283128644446255
5.40654e-07,0.13479,0.12288559123842843
5.41134e-07,0.13455,0.12293901238727888
5.41614e-07,0.134282,0.12299157803446144
5.42094e-07,0.133675,0.1230433198483067
5.42574e-07,0.133111,0.1230942733678813
5.43054e-07,0.132258,0.1231444774675611
5.43534e-07,0.131479,0.1231939746800585
5.44014e-07,0.130535,0.12324281061643558
5.44494e-07,0.129656,0.12329103426613196
5.44974e-07,0.128762,0.12333869737537097
5.45455e-07,0.127895,0.12338585472457202
5.45935e-07,0.127145,0.123432563468689
5.46415e-07,0.12637,0.12347888339294275
5.46895e-07,0.125798,0.12352487621916274
5.47375e-07,0.125155,0.12357060584131101
5.47855e-07,0.124743,0.12361613760236675
5.48335e-07,0.124235,0.12366153851162488
5.48815e-07,0.123939,0.1237068764970596
5.49295e-07,0.123549,0.12375222060686134
5.49775e-07,0.123316,0.12379764024253183
5.50255e-07,0.123016,0.12384320534756596
5.50735e-07,0.1228,0.12388898562676175
5.51215e-07,0.122554,0.12393505072535135
5.51695e-07,0.122315,0.12398146944015169
5.52175e-07,0.122087,0.12402830989279554
5.52655e-07,0.121798,0.12407563873839927
5.53135e-07,0.121558,0.12412352133683616
5.53615e-07,0.121206,0.12417202096455678
5.54095e-07,0.120935,0.1242211989880771
5.54575e-07,0.120523,0.12427111408445608
5.55056e-07,0.120213,0.12432182242133814
5.55536e-07,0.119752,0.12437337689137296
5.56016e-07,0.119406,0.12442582730325336
5.56496e-07,0.118918,0.1244792196350593
5.56976e-07,0.118552,0.12453359624076614
5.57456e-07,0.118068,0.12458899512711345
5.57936e-07,0.117709,0.12464545018002467
5.58416e-07,0.117272,0.1247029904691488
5.58896e-07,0.116959,0.12476164049853129
5.59376e-07,0.116612,0.12482141954246055
5.59856e-07,0.116382,0.12488234192456228
5.60336e-07,0.116155,0.12494441638801243
5.60816e-07,0.116028,0.12500764640699613
5.61296e-07,0.115926,0.12507202959373256
5.61776e-07,0.115895,0.12513755804594864
5.62256e-07,0.115896,0.12520421779251006
5.62736e-07,0.11594,0.12527198918021215
5.63216e-07,0.116016,0.12534084635913564
5.63696e-07,0.116122,0.12541075771165852
5.64176e-07,0.11626,0.1254816853779642
5.64656e-07,0.116435,0.125553585729734
5.65137e-07,0.116652,0.12562640893554147
5.65617e-07,0.11692,0.1257000994812006
5.66097e-07,0.117244,0.12577459577409353
5.66577e-07,0.117627,0.1258498307116315
5.67057e-07,0.118089,0.12592573132289378
5.67537e-07,0.11859,0.1260022193861143
5.68017e-07,0.11919,0.12607921110536743
5.68497e-07,0.119784,0.12615661777742915
5.68977e-07,0.120489,0.1262343455006409
5.69457e-07,0.121128,0.12631229589091647
5.69937e-07,0.121872,0.12639036581935834
5.70417e-07,0.122493,0.12646844817659642
5.70897e-07,0.123191,0.12654643163522966
5.71377e-07,0.123728,0.1266242014610989
5.71857e-07,0.124308,0.12670163929618797
5.72337e-07,0.124705,0.12677862401485476
5.72817e-07,0.125137,0.12685503152245806
5.73297e-07,0.125377,0.1269307356540052
5.73777e-07,0.125687,0.1270056079834806
5.74257e-07,0.125817,0.1270795187618184
5.74737e-07,0.126077,0.12715233673170168
5.75218e-07,0.126203,0.12722393010124153
5.75698e-07,0.126501,0.12729416635889482
5.76178e-07,0.126747,0.12736291327873087
5.76658e-07,0.127169,0.12743003873008532
5.77138e-07,0.127615,0.12749541170982637
5.77618e-07,0.128229,0.12755890214142332
5.78098e-07,0.128888,0.12762038192918962
5.78578e-07,0.12969,0.12767972474159944
5.79058e-07,0.130569,0.127736807082088
5.79538e-07,0.131485,0.12779150805169542
5.80018e-07,0.132496,0.1278437104306502
5.80498e-07,0.133514,0.12789330041575492
5.80978e-07,0.134606,0.12794016870666908
5.81458e-07,0.13556,0.1279842102138723
5.81938e-07,0.136613,0.12802532514330087
5.82418e-07,0.137473,0.12806341867122478
5.82898e-07,0.138422,0.12809840202068318
5.83378e-07,0.139127,0.12813019210018445
5.83858e-07,0.139896,0.1281587125652311
5.84338e-07,0.140393,0.1281838934183899
5.84818e-07,0.140919,0.1282056720491007
5.85299e-07,0.141173,0.1282239927933544
5.85779e-07,0.141418,0.1282388079449475
5.86259e-07,0.141425,0.12825007727373805
5.86739e-07,0.141393,0.12825776900154168
5.87219e-07,0.141192,0.12826185927869702
5.87699e-07,0.140933,0.12826233311790358
5.88179e-07,0.140597,0.12825918380976822
5.88659e-07,0.140195,0.12825241379577507
5.89139e-07,0.139813,0.12824203409616955
5.89619e-07,0.13936,0.1282280651417068
5.90099e-07,0.139007,0.12821053613182562
5.90579e-07,0.138577,0.12818948580558437
5.91059e-07,0.138294,0.1281649617640414
5.91539e-07,0.137928,0.12813702117591422
5.92019e-07,0.13772,0.1281057300668141
5.92499e-07,0.137429,0.12807116395550877
5.92979e-07,0.137273,0.12803340711302208
5.93459e-07,0.137044,0.12799255312621588
5.93939e-07,0.136904,0.127948704130109
5.94419e-07,0.136716,0.1279019712963591
5.94899e-07,0.136553,0.1278524740424772
5.9538e-07,0.136382,0.127800340443671
5.9586e-07,0.136161,0.12774570642293157
5.9634e-07,0.135981,0.12768871608558316
5.9682e-07,0.135683,0.12762952089449597
5.973e-07,0.135471,0.12756827992755995
5.9778e-07,0.135093,0.1275051590425303
5.9826e-07,0.134815,0.12744033105849284
5.9874e-07,0.134366,0.12737397491507468
5.9922e-07,0.133987,0.127306275779785
5.997e-07,0.133482,0.12723742420651796
6.0018e-07,0.132972,0.1271676161714258
6.0066e-07,0.13243,0.12709705223580306
6.0114e-07,0.131787,0.12702593751386781
6.0162e-07,0.131221,0.126954480845241
6.021e-07,0.130486,0.12688289469866984
6.0258e-07,0.1299,0.12681139435939967
6.0306e-07,0.129146,0.12674019777346507
6.0354e-07,0.128529,0.12666952475528787
6.0402e-07,0.127832,0.12659959677768126
6.045e-07,0.127185,0.12653063620499558
6.0498e-07,0.126587,0.12646286603442178
6.05461e-07,0.125929,0.12639650915994102
6.05941e-07,0.125425,0.12633178807087717
6.06421e-07,0.124792,0.12626892415178279
6.06901e-07,0.124327,0.12620813734447164
6.07381e-07,0.123743,0.12614964548879196
6.07861e-07,0.12324,0.12609366395456897
6.08341e-07,0.122682,0.12604040502797273
6.08821e-07,0.122068,0.125990077519919
6.09301e-07,0.121469,0.12594288620243277
6.09781e-07,0.120698,0.125899031400094
6.10261e-07,0.119974,0.12585870848043
6.10741e-07,0.119046,0.1258221074349526
6.11221e-07,0.118144,0.12578941242718472
6.11701e-07,0.117104,0.12576080136972018
6.12181e-07,0.116041,0.1257364455330046
6.12661e-07,0.11497,0.12571650912466212
6.13141e-07,0.113837,0.12570114896161286
6.13621e-07,0.112836,0.12569051405765647
6.14101e-07,0.11178,0.12568474536092297
6.14581e-07,0.11093,0.1256839753553851
6.15062e-07,0.110099,0.12568832790290446
6.15542e-07,0.109444,0.1256979178983564
6.16022e-07,0.10892,0.12571285107889144
6.16502e-07,0.108481,0.12573322366656126
6.16982e-07,0.108268,0.1257591223063382
6.17462e-07,0.108056,0.12579062373810115
6.17942e-07,0.108081,0.125827794801502
6.18422e-07,0.1081,0.12587069213983043
6.18902e-07,0.108257,0.12591936227071177
6.19382e-07,0.108483,0.12597384132486128
6.19862e-07,0.108687,0.1260341551810804
6.20342e-07,0.109047,0.12610031924216672
6.20822e-07,0.109282,0.12617233863219474
6.21302e-07,0.109666,0.1262502080110656
6.21782e-07,0.109965,0.1263339118316195
6.22262e-07,0.110289,0.12642342419350436
6.22742e-07,0.110687,0.12651870915727237
6.23222e-07,0.11097,0.12661972063743301
6.23702e-07,0.111463,0.1267264027703408
6.24182e-07,0.111845,0.1268386898454908
6.24662e-07,0.112401,0.12695650672370876
6.25143e-07,0.113037,0.12707976880496044
6.25623e-07,0.113685,0.1272083824931147
6.26103e-07,0.114627,0.12734224519778323
6.26583e-07,0.115495,0.12748124584174256
6.27063e-07,0.116651,0.1276252648936119
6.27543e-07,0.117857,0.12777417491389373
6.28023e-07,0.119111,0.12792784061464457
6.28503e-07,0.120606,0.1280861194400276
6.28983e-07,0.121946,0.1282488616485433
6.29463e-07,0.123503,0.1284159109239833
6.29943e-07,0.124955,0.1285871044752723
6.30423e-07,0.126337,0.12876227367377052
6.30903e-07,0.127796,0.12894124416534133
6.31383e-07,0.128956,0.12912383653007042
6.31863e-07,0.13019,0.12930986640081968
6.32343e-07,0.131189,0.1294991451416126
6.32823e-07,0.132028,0.12969147996666716
6.33303e-07,0.132853,0.1298866746339385
6.33783e-07,0.133354,0.13008452955844207
6.34263e-07,0.133899,0.1302848425177426
6.34743e-07,0.134235,0.13048740875328346
6.35224e-07,0.134457,0.13069202168496322
6.35704e-07,0.134708,0.13089847299417515
