lambda	signal	optima_preserving_denoising
4e-07	0.0787681	0.07834279562595581
4.0096e-07	0.0784456	0.07823497983897035
4.0192e-07	0.0781357	0.07801596499446926
4.0288e-07	0.0777795	0.07772033594663978
4.0384e-07	0.07743	0.07735945991269307
4.048e-07	0.0770568	0.07695575122938292
4.05761e-07	0.0766063	0.07650419083142017
4.06721e-07	0.0760864	0.07600729837509435
4.07681e-07	0.0755339	0.07546516866018017
4.08641e-07	0.0749577	0.07487949878685607
4.09601e-07	0.074339	0.07424988443831446
4.10561e-07	0.0736506	0.07357821672535486
4.11521e-07	0.0729042	0.07287428492110834
4.12481e-07	0.0721286	0.07215842094712736
4.13441e-07	0.0713815	0.07145669616975
4.14401e-07	0.0706865	0.07079092607609735
4.15362e-07	0.0700752	0.07017461775004608
4.16322e-07	0.069531	0.06961141375606685
4.17282e-07	0.0689874	0.069091266495142
4.18242e-07	0.0685144	0.06860513784160023
4.19202e-07	0.068171	0.06812745813560774
4.20162e-07	0.0677965	0.06761502063856488
4.21122e-07	0.0674334	0.06704976372975119
4.22082e-07	0.0666563	0.06637835986850074
4.23042e-07	0.0649728	0.06566744344086707
4.24002e-07	0.0648671	0.06509812628510321
4.24962e-07	0.0645767	0.06464282630753289
4.25923e-07	0.0641967	0.06420098429058492
4.26883e-07	0.0638824	0.0638132039678503
4.27843e-07	0.0635011	0.06339461464518147
4.28803e-07	0.0630027	0.06296085680925874
4.29763e-07	0.0625696	0.0624934883801181
4.30723e-07	0.062004	0.06200810088660756
4.31683e-07	0.0614754	0.061519592864927836
4.32643e-07	0.0609848	0.06104778579031611
4.33603e-07	0.0605009	0.06060979367201558
4.34563e-07	0.0601378	0.06020614926674254
4.35524e-07	0.0597452	0.059854890505135594
4.36484e-07	0.0594582	0.05954344060306433
4.37444e-07	0.0591578	0.05928886163698256
4.38404e-07	0.0589413	0.059091369684214995
4.39364e-07	0.0588137	0.05893685402753919
4.40324e-07	0.0586993	0.058856267881999665
4.41284e-07	0.0587416	0.05879026708650214
4.42244e-07	0.058718	0.05879011206294089
4.43204e-07	0.0587447	0.05879877630126532
4.44164e-07	0.058815	0.058842783127263217
4.45125e-07	0.0588306	0.05890546867607818
4.46085e-07	0.058924	0.05897832713960002
4.47045e-07	0.0590937	0.059058504943330536
4.48005e-07	0.0592139	0.059126902139461916
4.48965e-07	0.0592712	0.059174333563939634
4.49925e-07	0.0592952	0.05919381279143023
4.50885e-07	0.0592704	0.0591837793629209
4.51845e-07	0.0591916	0.05914535821729766
4.52805e-07	0.0590966	0.05908213806362873
4.53765e-07	0.0590209	0.058994904732264195
4.54725e-07	0.0589559	0.058880470211539714
4.55686e-07	0.0588648	0.0587317962704278
4.56646e-07	0.0586994	0.05853784793258926
4.57606e-07	0.0584283	0.058296908555166956
4.58566e-07	0.0580786	0.05800997765595512
4.59526e-07	0.0576825	0.057701722181203084
4.60486e-07	0.0573171	0.05738521213466013
4.61446e-07	0.0569848	0.05708844342536529
4.62406e-07	0.0567543	0.05679303876074266
4.63366e-07	0.0565464	0.0564961633198084
4.64326e-07	0.0564011	0.05614084851626606
4.65287e-07	0.0560648	0.05569636143410274
4.66247e-07	0.0554539	0.05509566377751133
4.67207e-07	0.0547406	0.054349201006425416
4.68167e-07	0.0536615	0.05347044924407754
4.69127e-07	0.0512957	0.052669734506922604
4.70087e-07	0.0514315	0.0522478193224388
4.71047e-07	0.0516953	0.0521451658275511
4.72007e-07	0.0520432	0.052056311453771695
4.72967e-07	0.0523587	0.05211904226535307
4.73927e-07	0.0525177	0.05210656258188188
4.74887e-07	0.0524433	0.052038165444848156
4.75848e-07	0.0521304	0.05185810191432093
4.76808e-07	0.0516391	0.05159369414397845
4.77768e-07	0.0511015	0.05131719535338131
4.78728e-07	0.0507092	0.05111130441661918
4.79688e-07	0.0505838	0.05101489958272526
4.80648e-07	0.0506887	0.051013485790016376
4.81608e-07	0.0509886	0.05108514457457744
4.82568e-07	0.0514077	0.051165813704802554
4.83528e-07	0.0516441	0.05117344805879629
4.84488e-07	0.0516171	0.05107176210990735
4.85449e-07	0.0513328	0.05079518260902138
4.86409e-07	0.0506211	0.05033025219609459
4.87369e-07	0.0497636	0.049725913390013934
4.88329e-07	0.0488062	0.04912897360167662
4.89289e-07	0.0480603	0.04870798174512403
4.90249e-07	0.0477548	0.048518862347174306
4.91209e-07	0.0478722	0.048541204016013084
4.92169e-07	0.0484427	0.04874153191152983
4.93129e-07	0.0491126	0.0490878113721781
4.94089e-07	0.0498193	0.04940878096074673
4.9505e-07	0.0502224	0.04958954617344973
4.9601e-07	0.0503276	0.04956619981498156
4.9697e-07	0.0499642	0.049345985023436505
4.9793e-07	0.0492094	0.04887761718758398
4.9889e-07	0.0482156	0.04825222580801078
4.9985e-07	0.04718	0.04767163735793858
5.0081e-07	0.046536	0.047320783788460365
5.0177e-07	0.0463281	0.04723915424226417
5.0273e-07	0.0467271	0.047375161153569385
5.0369e-07	0.0475103	0.047776079344883614
5.0465e-07	0.0483793	0.04835693229895002
5.05611e-07	0.0492155	0.04897240174948068
5.06571e-07	0.0498135	0.049490841929697146
5.07531e-07	0.0502167	0.049848776069167315
5.08491e-07	0.0505358	0.05002192731890996
5.09451e-07	0.0506118	0.05002150825019967
5.10411e-07	0.0503096	0.04985706474878893
5.11371e-07	0.0497133	0.049540721216119875
5.12331e-07	0.0489965	0.0491610209600309
5.13291e-07	0.0483716	0.04884549892014729
5.14251e-07	0.0480691	0.048675972115707955
5.15212e-07	0.048179	0.048648254802879154
5.16172e-07	0.0485619	0.04874927131031467
5.17132e-07	0.048999	0.04896196946570631
5.18092e-07	0.0493133	0.0492291175611599
5.19052e-07	0.0494699	0.04953843378693783
5.20012e-07	0.0496848	0.04985089099628938
5.20972e-07	0.0500334	0.05018378235902247
5.21932e-07	0.0507016	0.05041981486809637
5.22892e-07	0.0511907	0.05048719537626777
5.23852e-07	0.0516028	0.050302715387979015
5.24812e-07	0.0509632	0.04975293178349494
5.25773e-07	0.0490478	0.04852282208716604
5.26733e-07	0.0471833	0.04675810471010068
5.27693e-07	0.0427792	0.04467915741012436
5.28653e-07	0.0425054	0.04398932578473166
5.29613e-07	0.0428643	0.04377269176642814
5.30573e-07	0.043639	0.04367551515550338
5.31533e-07	0.0443702	0.04373523670395971
5.32493e-07	0.0445722	0.043722244670389515
5.33453e-07	0.0440785	0.04364353805763592
5.34413e-07	0.0432051	0.043505252918281716
5.35374e-07	0.0425415	0.043463002975893804
5.36334e-07	0.0425461	0.04358635713090776
5.37294e-07	0.0433199	0.04397953574296516
5.38254e-07	0.0446174	0.044669680532180435
5.39214e-07	0.0459485	0.04542657346795096
5.40174e-07	0.046782	0.04600042449973305
5.41134e-07	0.0468933	0.0463877556470613
5.42094e-07	0.0465695	0.04668478271177385
5.43054e-07	0.046381	0.046993786283493766
5.44014e-07	0.0467451	0.047403824238930206
5.44974e-07	0.0476892	0.04798218271354383
5.45935e-07	0.0489006	0.04863794003584313
5.46895e-07	0.0499328	0.049112015493385126
5.47855e-07	0.0504146	0.04926378515878206
5.48815e-07	0.0501641	0.04914826013760184
5.49775e-07	0.0492129	0.04869829380417168
5.50735e-07	0.0478244	0.048005881034834816
5.51695e-07	0.0464884	0.04747087232484004
5.52655e-07	0.0458151	0.047333167534070394
5.53615e-07	0.0462609	0.04751577648797117
5.54575e-07	0.0477536	0.04818423612175004
5.55536e-07	0.0495915	0.04919541544039976
5.56496e-07	0.0509308	0.050012759241314646
5.57456e-07	0.051425	0.05046992642725598
5.58416e-07	0.0512678	0.050710146074225686
5.59376e-07	0.0507485	0.05085975756391383
5.60336e-07	0.0502357	0.05105148478897961
5.61296e-07	0.0502753	0.05140345980845794
5.62256e-07	0.0511361	0.05213657718999497
5.63216e-07	0.0529418	0.05351070766923291
5.64176e-07	0.0555531	0.05551431498930431
5.65137e-07	0.0581292	0.05740040199956932
5.66097e-07	0.0599179	0.05842889675967729
5.67057e-07	0.0605457	0.05870158128351728
5.68017e-07	0.0597481	0.058572266537869073
5.68977e-07	0.0580786	0.057917893853385485
5.69937e-07	0.0564421	0.05706468527420201
5.70897e-07	0.0553167	0.05654020102825319
5.71857e-07	0.0551863	0.056402880290137146
5.72817e-07	0.055791	0.05654478445014137
5.73777e-07	0.0568603	0.05698067630421914
5.74737e-07	0.0581089	0.05749568431623957
5.75698e-07	0.0588652	0.057836383134208635
5.76658e-07	0.0587909	0.05802782023464881
5.77618e-07	0.0578617	0.0581929774485126
5.78578e-07	0.0570269	0.05845122538655181
5.79538e-07	0.0573339	0.05900671726053796
5.80498e-07	0.0593726	0.060384039127504646
5.81458e-07	0.0628873	0.06323596034229094
5.82418e-07	0.0671984	0.06714118077599049
5.83378e-07	0.0712564	0.07089620599759007
5.84338e-07	0.0744722	0.07376775093984962
5.85299e-07	0.0764422	0.0756418410513147
5.86259e-07	0.0774018	0.07689099105660949
5.87219e-07	0.0780954	0.07783220971609428
5.88179e-07	0.0785814	0.07861319529234424
5.89139e-07	0.0793213	0.07934231674382504
5.90099e-07	0.0800172	0.0800708202309438
5.91059e-07	0.0806686	0.0808402198322432
5.92019e-07	0.0815147	0.08170921319833102
5.92979e-07	0.0823854	0.08270114060906876
5.93939e-07	0.0835522	0.0838634697397617
5.94899e-07	0.0852888	0.08518451607417801
5.9586e-07	0.0868898	0.08640228369980732
5.9682e-07	0.0879878	0.0872520886232026
5.9778e-07	0.0883299	0.08778465132697212
5.9874e-07	0.0888143	0.0878392288360259
5.997e-07	0.0884231	0.08778852972339922
6.0066e-07	0.0888875	0.0872983433159269
6.0162e-07	0.0861767	0.08641033341641495
6.0258e-07	0.0831025	0.08589172275148456
6.0354e-07	0.0841921	0.08597586348800687
6.045e-07	0.0857528	0.08677982527525342
6.05461e-07	0.088242	0.08876468922090129
6.06421e-07	0.0916502	0.09184872862330597
6.07381e-07	0.0955063	0.09548156968090149
6.08341e-07	0.0992993	0.09904901682852357
6.09301e-07	0.102528	0.10202479679286937
6.10261e-07	0.104811	0.10421084295595628
6.11221e-07	0.106229	0.1058228921640921
6.12181e-07	0.107234	0.10715756122517033
6.13141e-07	0.108231	0.10843193413520086
6.14101e-07	0.109458	0.1098139951936995
6.15062e-07	0.11108	0.11145498355138453
6.16022e-07	0.113174	0.11346699371392314
6.16982e-07	0.115683	0.11586236196123215
6.17942e-07	0.118498	0.11853684963602036
6.18902e-07	0.121436	0.12124091862432027
6.19862e-07	0.124155	0.12350493159034188
6.20822e-07	0.126192	0.12482020583368683
6.21782e-07	0.127062	0.12524260238318816
6.22742e-07	0.126578	0.12520454238958822
6.23702e-07	0.125144	0.12462644466809428
6.24662e-07	0.12347	0.12354178671585371
6.25623e-07	0.12204	0.12238222355183181
6.26583e-07	0.120964	0.12145155753107585
6.27543e-07	0.120167	0.12088757883481023
6.28503e-07	0.119639	0.12072769640855753
6.29463e-07	0.119612	0.12090667059344389
6.30423e-07	0.120463	0.12158509438738058
6.31383e-07	0.122393	0.12307467655387938
6.32343e-07	0.125219	0.12549966369739188
6.33303e-07	0.128466	0.12851569308491662
6.34263e-07	0.131777	0.13165173068681524
6.35224e-07	0.134947	0.13448450709886084
6.36184e-07	0.137433	0.13653426457673346
6.37144e-07	0.138718	0.13778477404553274
6.38104e-07	0.139068	0.1386182618500131
6.39064e-07	0.139097	0.1393175421766198
6.40024e-07	0.139269	0.14008482587715043
6.40984e-07	0.140135	0.1411617336329448
6.41944e-07	0.142241	0.14295781245576428
6.42904e-07	0.14555	0.14581738546142306
6.43864e-07	0.149385	0.14936630053005737
6.44824e-07	0.153026	0.15291225270697997
6.45785e-07	0.156281	0.15619998918125097
6.46745e-07	0.159436	0.1592628371911666
6.47705e-07	0.162547	0.16174234718441133
6.48665e-07	0.164965	0.16277476659580467
6.49625e-07	0.165755	0.1628011727432993
6.50585e-07	0.163943	0.16205971359199597
6.51545e-07	0.158503	0.15801747045546785
6.52505e-07	0.149547	0.14949801478353825
6.53465e-07	0.139693	0.13996225632183945
6.54425e-07	0.132695	0.1342950114969017
6.55386e-07	0.130157	0.13313392381527506
6.56346e-07	0.130885	0.13299394779979876
6.57306e-07	0.132972	0.13335573456172004
6.58266e-07	0.135148	0.13407988756126213
6.59226e-07	0.13651	0.13433829405569858
6.60186e-07	0.136054	0.13422789114883218
6.61146e-07	0.133494	0.13356639308429735
6.62106e-07	0.130674	0.13308578935527957
6.63066e-07	0.130313	0.13318929752294043
6.64026e-07	0.133091	0.13427740126988702
6.64986e-07	0.13756	0.13762970460021243
6.65947e-07	0.141914	0.14149400884661442
6.66907e-07	0.145001	0.14438773442114383
6.67867e-07	0.14683	0.14640534344471315
6.68827e-07	0.148389	0.14790389653653088
6.69787e-07	0.149903	0.14883490013264558
6.70747e-07	0.150564	0.14914807380109776
6.71707e-07	0.150278	0.1490679738773661
6.72667e-07	0.14938	0.1485063284940204
6.73627e-07	0.147739	0.14731254545085212
6.74587e-07	0.145564	0.1455965510709474
6.75548e-07	0.14376	0.14374711801811954
6.76508e-07	0.142427	0.14180589652082443
6.77468e-07	0.140036	0.1391961781235118
6.78428e-07	0.134938	0.13452747714679356
6.79388e-07	0.126813	0.12673420812345843
6.80348e-07	0.117423	0.1176642706101559
6.81308e-07	0.110093	0.11225432100626646
6.82268e-07	0.107547	0.11181187680757443
6.83228e-07	0.10988	0.11208328995626538
6.84188e-07	0.114907	0.11519071077004933
6.85149e-07	0.120354	0.12005775991308612
6.86109e-07	0.124923	0.12340188416918135
6.87069e-07	0.127632	0.12407640616469348
6.88029e-07	0.126872	0.12395050717803194
6.88989e-07	0.121854	0.121432992719453
6.89949e-07	0.115356	0.11725240929843513
6.90909e-07	0.112192	0.11681724057170252
6.91869e-07	0.114808	0.11712494836179699
6.92829e-07	0.121777	0.1219562255548784
6.93789e-07	0.129405	0.12902383400329565
6.94749e-07	0.134868	0.1332236259902338
6.9571e-07	0.136817	0.13426111022797624
6.9667e-07	0.136102	0.13439105008549518
6.9763e-07	0.135033	0.13396791377751516
6.9859e-07	0.133341	0.13262827492148124
6.9955e-07	0.130203	0.13025575417782245
7.0051e-07	0.128156	0.12795138114738447
7.0147e-07	0.123686	0.1257571164421761
7.0243e-07	0.123159	0.1253344863492964
7.0339e-07	0.123632	0.1254461657277098
7.0435e-07	0.125445	0.12634504620502893
7.05311e-07	0.128826	0.12811728864233088
7.06271e-07	0.132106	0.12877605718333138
7.07231e-07	0.132051	0.12865272722596188
7.08191e-07	0.126771	0.12600687208860592
7.09151e-07	0.117152	0.11705893596567116
7.10111e-07	0.105276	0.1052746228244382
7.11071e-07	0.0934226	0.09346270927649733
7.12031e-07	0.0829974	0.08308396785486745
7.12991e-07	0.0742434	0.07460900317117208
7.13951e-07	0.0680359	0.07015141458629007
7.14911e-07	0.0657672	0.06969988476088362
7.15872e-07	0.0674673	0.0699377441290818
7.16832e-07	0.0723952	0.07302044519077089
7.17792e-07	0.0807091	0.08087396462960529
7.18752e-07	0.0929343	0.09297311292397409
7.19712e-07	0.107542	0.10752092078992044
7.20672e-07	0.120759	0.12057377631574184
7.21632e-07	0.129557	0.12804702561289216
7.22592e-07	0.133054	0.1291161587640614
7.23552e-07	0.131913	0.1290651527376745
7.24512e-07	0.12799	0.12728957201844007
7.25473e-07	0.122931	0.12292443992225484
7.26433e-07	0.11796	0.11840162043553248
7.27393e-07	0.113971	0.11561781394292643
7.28353e-07	0.112164	0.11494275951083852
7.29313e-07	0.112788	0.11494175648643866
7.30273e-07	0.11561	0.1157110927230229
7.31233e-07	0.118709	0.11652744747234435
7.32193e-07	0.119724	0.11655232751252367
7.33153e-07	0.117052	0.11592194325395773
7.34113e-07	0.112319	0.11433267013939882
7.35074e-07	0.109998	0.11422512758578526
7.36034e-07	0.112869	0.11484355313933106
7.36994e-07	0.120466	0.12061681427817655
7.37954e-07	0.129186	0.12853254275823578
7.38914e-07	0.135218	0.1311043530299043
7.39874e-07	0.134956	0.13110626070033266
7.40834e-07	0.129305	0.12898628077509336
7.41794e-07	0.12378	0.12503373351245325
7.42754e-07	0.122138	0.12346744162740042
7.43714e-07	0.121893	0.12291587652321939
7.44674e-07	0.120104	0.12295992632372943
7.45635e-07	0.121233	0.12361658421549859
7.46595e-07	0.129642	0.1298965533802004
7.47555e-07	0.142204	0.14208173132010823
7.48515e-07	0.15262	0.14951301894958613
7.49475e-07	0.155426	0.14948033340060077
7.50435e-07	0.147607	0.1469202406695879
7.51395e-07	0.130872	0.13084625987030707
7.52355e-07	0.108989	0.10899028698018734
7.53315e-07	0.0875204	0.08759846463680288
7.54275e-07	0.0729556	0.0770522268399684
7.55236e-07	0.0714336	0.07707748943143897
7.56196e-07	0.0847509	0.08490232425725032
7.57156e-07	0.107879	0.10788380252165133
7.58116e-07	0.133904	0.1338979977122775
7.59076e-07	0.156219	0.1561958740683933
7.60036e-07	0.172894	0.17283354430472828
7.60996e-07	0.18478	0.18471761603631065
7.61956e-07	0.194779	0.19458930274585512
7.62916e-07	0.202782	0.20094451595349566
7.63876e-07	0.206052	0.20178429615746404
7.64836e-07	0.203722	0.20187310566222816
7.65797e-07	0.197763	0.20156197521251598
7.66757e-07	0.197193	0.2015814226943438
7.67717e-07	0.211152	0.21126117163017877
7.68677e-07	0.238194	0.23819446546881307
7.69637e-07	0.26553	0.2655003952943414
7.70597e-07	0.283419	0.2816799957825355
7.71557e-07	0.289024	0.28191086189813225
7.72517e-07	0.281838	0.28076040535757324
7.73477e-07	0.263817	0.2637910455443164
7.74437e-07	0.237096	0.23709277886365906
7.75398e-07	0.206195	0.20619571782502585
7.76358e-07	0.176524	0.17652854411849464
7.77318e-07	0.151483	0.15152104604799
7.78278e-07	0.134909	0.1367772629767498
7.79238e-07	0.129873	0.13656843065020763
7.80198e-07	0.136092	0.1374121734276992
7.81158e-07	0.150557	0.15060374526806525
7.82118e-07	0.170386	0.17039224069396486
7.83078e-07	0.192267	0.1922584378348288
7.84038e-07	0.211561	0.21148803491972637
7.84998e-07	0.22418	0.22341149862024262
7.85959e-07	0.229324	0.22635605775401238
7.86919e-07	0.229686	0.22654255646100568
7.87879e-07	0.227985	0.22610774890412982
7.88839e-07	0.224286	0.22348739779847104
7.89799e-07	0.216945	0.21669957577992283
7.90759e-07	0.20492	0.20486261386634705
7.91719e-07	0.189013	0.18901568863536525
7.92679e-07	0.173289	0.1734070487906367
7.93639e-07	0.163337	0.16366387878896813
7.94599e-07	0.157923	0.15815336117235934
7.9556e-07	0.151056	0.154744206433663
7.9652e-07	0.149086	0.15457094921505415
7.9748e-07	0.164234	0.16433223574020397
7.9844e-07	0.19277	0.19277134553448116
7.994e-07	0.223011	0.2230045336652017
8.0036e-07	0.247091	0.24699998055331057
8.0132e-07	0.260877	0.25727162029656875
8.0228e-07	0.263027	0.2572005040696839
8.0324e-07	0.253655	0.253220451937968
8.042e-07	0.23547	0.23546947796034542
8.05161e-07	0.216974	0.21771723953812325
8.06121e-07	0.208661	0.21560750569431072
8.07081e-07	0.213481	0.21566414470577133
8.08041e-07	0.226833	0.22688607116101103
8.09001e-07	0.242919	0.24289581436751317
8.09961e-07	0.25652	0.2565299455014769
8.10921e-07	0.270753	0.27080287096044486
8.11881e-07	0.298587	0.29859163374131487
8.12841e-07	0.33651	0.336508506778809
8.13801e-07	0.369357	0.3693471624544321
8.14761e-07	0.39212	0.39209115751377926
8.15722e-07	0.407982	0.40796962928071107
8.16682e-07	0.422572	0.4225821404382874
8.17642e-07	0.438433	0.43840581096202397
8.18602e-07	0.452143	0.4518839756548711
8.19562e-07	0.460451	0.4579631094389496
8.20522e-07	0.463345	0.45816444553921115
8.21482e-07	0.4596	0.45769462872767275
8.22442e-07	0.446395	0.4463116100767851
8.23402e-07	0.42281	0.42280437867382964
8.24362e-07	0.394641	0.39480351743657704
8.25323e-07	0.379013	0.38819512742150913
8.26283e-07	0.389646	0.39028429726726
8.27243e-07	0.414783	0.41477747135943616
8.28203e-07	0.436621	0.43650733306436523
8.29163e-07	0.448829	0.4461830025843379
8.30123e-07	0.451625	0.4462341652314042
8.31083e-07	0.447127	0.44550909164741576
8.32043e-07	0.437571	0.4374239533728035
8.33003e-07	0.423864	0.42382321725255295
8.33963e-07	0.405544	0.40552839646462135
8.34923e-07	0.382158	0.38215173285442566
8.35884e-07	0.353574	0.35357077608571585
8.36844e-07	0.3183	0.3182984477541805
8.37804e-07	0.274153	0.274152841512881
8.38764e-07	0.22818	0.2281849900046795
8.39724e-07	0.198116	0.20016682602018276
8.40684e-07	0.192016	0.199951666484811
8.41644e-07	0.224291	0.22429782353942596
8.42604e-07	0.272279	0.27227796931812903
8.43564e-07	0.311161	0.3111549712885629
8.44524e-07	0.337896	0.3377359423667931
8.45485e-07	0.350493	0.3455348812075254
8.46445e-07	0.349911	0.34546376651789074
8.47405e-07	0.340518	0.3408192203917934
8.48365e-07	0.331917	0.33808458836211547
8.49325e-07	0.334991	0.337988398541038
8.50285e-07	0.348579	0.34857013655467217
8.51245e-07	0.361059	0.3592658331840571
8.52205e-07	0.365671	0.35974135207314384
8.53165e-07	0.361642	0.35954453121419555
8.54125e-07	0.346451	0.3463935984376342
8.55086e-07	0.318363	0.31835864867502595
8.56046e-07	0.280729	0.2807303079644673
8.57006e-07	0.246652	0.24755606448791176
8.57966e-07	0.237172	0.24622643837750774
8.58926e-07	0.259827	0.25986358073450344
8.59886e-07	0.300391	0.30039163771059646
8.60846e-07	0.346466	0.3464655447035563
8.61806e-07	0.388172	0.3881687380690141
8.62766e-07	0.418731	0.4187081019278912
8.63726e-07	0.43733	0.4371455688801546
8.64686e-07	0.44627	0.4458193902504727
