lambda	signal	optima_preserving_denoising
4e-07	0.0940303	0.09303151880982075
4.0096e-07	0.0930226	0.09271843055618208
4.0192e-07	0.0921402	0.09213109491418096
4.0288e-07	0.0913458	0.0914122254886783
4.0384e-07	0.0906069	0.09068783324833052
4.048e-07	0.0899214	0.09000157796937026
4.05761e-07	0.0892899	0.08937494726418899
4.06721e-07	0.0887108	0.08880916740877821
4.07681e-07	0.0881929	0.08830781874747938
4.08641e-07	0.0877524	0.08787283712812415
4.09601e-07	0.0873963	0.08750088678631901
4.10561e-07	0.0871101	0.08718278763441682
4.11521e-07	0.0868644	0.08690637550289143
4.12481e-07	0.0866332	0.08665935697717927
4.13441e-07	0.0864099	0.08643142515145322
4.14401e-07	0.0862027	0.08621434942715502
4.15362e-07	0.0860111	0.08599992611788825
4.16322e-07	0.0858108	0.0857792577268708
4.17282e-07	0.0855802	0.08554343539257976
4.18242e-07	0.0853398	0.08528153261752297
4.19202e-07	0.0850893	0.08498722800042512
4.20162e-07	0.0847442	0.08465327025735114
4.21122e-07	0.08431	0.08427813130989015
4.22082e-07	0.0838842	0.08388040636170346
4.23042e-07	0.0834777	0.08344883953894146
4.24002e-07	0.0830875	0.08300791896622814
4.24962e-07	0.0825525	0.08251765535116949
4.25923e-07	0.0820931	0.08201511765466175
4.26883e-07	0.0815018	0.08146997426107232
4.27843e-07	0.0809047	0.08091096709653763
4.28803e-07	0.0803284	0.08035280446586553
4.29763e-07	0.0797426	0.07978210508298869
4.30723e-07	0.0793026	0.07922789870050838
4.31683e-07	0.0786447	0.0785970882944876
4.32643e-07	0.0781566	0.07792451425019248
4.33603e-07	0.0774868	0.07710255842915524
4.34563e-07	0.076448	0.0761583194641527
4.35524e-07	0.0743865	0.0751478652075657
4.36484e-07	0.0738299	0.07448345662242505
4.37444e-07	0.0737851	0.07405293114534417
4.38404e-07	0.0736927	0.07377505587636264
4.39364e-07	0.0736593	0.07359756353878345
4.40324e-07	0.0734935	0.07343336392278609
4.41284e-07	0.0732983	0.07327872038499038
4.42244e-07	0.0731596	0.07309441352673195
4.43204e-07	0.0729405	0.07288285547980064
4.44164e-07	0.0726589	0.07265020556127705
4.45125e-07	0.0724167	0.07239716935734535
4.46085e-07	0.0721798	0.07212658084350855
4.47045e-07	0.0718791	0.07183796428053288
4.48005e-07	0.071538	0.07153327478952272
4.48965e-07	0.0712145	0.07121636531054756
4.49925e-07	0.0709137	0.07088820231130605
4.50885e-07	0.070595	0.07054688112563078
4.51845e-07	0.0702271	0.07019361996864779
4.52805e-07	0.0698196	0.06983807065181762
4.53765e-07	0.0694177	0.06949756506744431
4.54725e-07	0.0690774	0.06918859099383118
4.55686e-07	0.0688293	0.06891600774001014
4.56646e-07	0.0686533	0.06867065728493327
4.57606e-07	0.0684873	0.06843544071920674
4.58566e-07	0.0682687	0.06819572431466916
4.59526e-07	0.0679759	0.0679494192402323
4.60486e-07	0.0676446	0.0677131221747011
4.61446e-07	0.0673512	0.06751611422338115
4.62406e-07	0.0671731	0.06738184445161174
4.63366e-07	0.0671447	0.06731297645986499
4.64326e-07	0.0672349	0.06729152180610753
4.65287e-07	0.0673617	0.06728960241514402
4.66247e-07	0.0674314	0.06727805017388921
4.67207e-07	0.0673809	0.06723863869605301
4.68167e-07	0.0672098	0.06717317323321237
4.69127e-07	0.0669977	0.06710902145103503
4.70087e-07	0.0668736	0.06708003314469377
4.71047e-07	0.0669042	0.06711238130331598
4.72007e-07	0.0670475	0.06721769466208037
4.72967e-07	0.0673048	0.06737958358282818
4.73927e-07	0.0676639	0.06756466951292724
4.74887e-07	0.0679062	0.06772488896438672
4.75848e-07	0.0680155	0.06780043104248666
4.76808e-07	0.0680454	0.06784192184558933
4.77768e-07	0.0678522	0.06776048039503058
4.78728e-07	0.0676996	0.06772120107643213
4.79688e-07	0.0674478	0.06757861880385597
4.80648e-07	0.0674449	0.06760071379913876
4.81608e-07	0.0673708	0.06748223642189344
4.82568e-07	0.067624	0.06758317849455656
4.83528e-07	0.0675891	0.06743645042414209
4.84488e-07	0.0677706	0.0674043776921599
4.85449e-07	0.0674433	0.06705787137307928
4.86409e-07	0.0670897	0.06656666256902223
4.87369e-07	0.0664279	0.06569741868592012
4.88329e-07	0.0650622	0.064376017140771
4.89289e-07	0.0624472	0.06251832535378386
4.90249e-07	0.0592803	0.060857352601595215
4.91209e-07	0.0592736	0.06016180318998336
4.92169e-07	0.059434	0.05973184436050373
4.93129e-07	0.0596021	0.05962226309467122
4.94089e-07	0.0596795	0.059539742641403735
4.9505e-07	0.0595955	0.059524443962972406
4.9601e-07	0.0595293	0.059530364964957984
4.9697e-07	0.0594133	0.059497441158575824
4.9793e-07	0.059418	0.05951746355073701
4.9889e-07	0.0594472	0.05956350603005001
4.9985e-07	0.0595067	0.059673548343999044
5.0081e-07	0.0597046	0.059848047412140254
5.0177e-07	0.0599917	0.060061952227182344
5.0273e-07	0.0603696	0.06028408322201325
5.0369e-07	0.0607209	0.06045247622680457
5.0465e-07	0.0608563	0.06052863552701939
5.05611e-07	0.0607602	0.06051358680245
5.06571e-07	0.0604986	0.06042173605316474
5.07531e-07	0.0601654	0.06029882484082743
5.08491e-07	0.0599423	0.06019949667797913
5.09451e-07	0.0599587	0.06015450066829217
5.10411e-07	0.0601314	0.06016619009445206
5.11371e-07	0.0602666	0.060235029649907824
5.12331e-07	0.0602836	0.060358761814225774
5.13291e-07	0.0602988	0.060544659085262416
5.14251e-07	0.0605164	0.06080332176371745
5.15212e-07	0.0610289	0.06111945334825048
5.16172e-07	0.0616832	0.06141334236665599
5.17132e-07	0.0621519	0.06157366281867358
5.18092e-07	0.0621653	0.06155709465253688
5.19052e-07	0.0617111	0.06134563942825886
5.20012e-07	0.0610117	0.060947522195216826
5.20972e-07	0.0603303	0.0604533395785391
5.21932e-07	0.0598146	0.05995702245783088
5.22892e-07	0.0594476	0.05949672412384035
5.23852e-07	0.0591066	0.059083634827528264
5.24812e-07	0.0586632	0.058743233603812776
5.25773e-07	0.0581484	0.05854835416255422
5.26733e-07	0.0578284	0.05856263252092908
5.27693e-07	0.0580462	0.058821003439213496
5.28653e-07	0.0589265	0.059415572849572974
5.29613e-07	0.060253	0.06032168653054433
5.30573e-07	0.061618	0.061292433622055074
5.31533e-07	0.0626605	0.06203286743900844
5.32493e-07	0.0631966	0.062417773599553125
5.33453e-07	0.0631976	0.062493566407876046
5.34413e-07	0.0627244	0.06232448100013252
5.35374e-07	0.0619464	0.06196282689169532
5.36334e-07	0.0611744	0.0615916791095964
5.37294e-07	0.0607496	0.06136854807668713
5.38254e-07	0.0608344	0.06132042337052116
5.39214e-07	0.0612903	0.061419704758218424
5.40174e-07	0.061781	0.06163467878066621
5.41134e-07	0.0620389	0.06191045466220293
5.42094e-07	0.0620642	0.0622501167022837
5.43054e-07	0.0621422	0.06271487167302796
5.44014e-07	0.0627129	0.0634244927848347
5.44974e-07	0.0640407	0.06452501338773588
5.45935e-07	0.0659155	0.06602243565801348
5.46895e-07	0.0678854	0.06762166274736871
5.47855e-07	0.0696268	0.06892745242353372
5.48815e-07	0.0706847	0.0697514443890259
5.49775e-07	0.0706987	0.07024831112626849
5.50735e-07	0.0703551	0.07059193335384037
5.51695e-07	0.0703875	0.07100996554062641
5.52655e-07	0.0707596	0.07157232776838954
5.53615e-07	0.0721991	0.07249931189326633
5.54575e-07	0.073914	0.07355778469282058
5.55536e-07	0.0752073	0.07424050733112147
5.56496e-07	0.0758878	0.07427373859435762
5.57456e-07	0.0759691	0.07380549772049133
5.58416e-07	0.0726684	0.07179513355050361
5.59376e-07	0.0663293	0.06776358992341532
5.60336e-07	0.064852	0.06621739461706326
5.61296e-07	0.0642231	0.06563661887663473
5.62256e-07	0.0644639	0.0656551017950078
5.63216e-07	0.0655705	0.06625881961816786
5.64176e-07	0.067293	0.06753707703503317
5.65137e-07	0.0692692	0.06913761494710312
5.66097e-07	0.0710453	0.07065659833958199
5.67057e-07	0.0723251	0.07188999637777164
5.68017e-07	0.0731299	0.07287693049016986
5.68977e-07	0.0736518	0.07373917310603349
5.69937e-07	0.0743392	0.07463441003207591
5.70897e-07	0.0752811	0.07567761928226499
5.71857e-07	0.0766749	0.0769795478916543
5.72817e-07	0.0784077	0.07852445988870085
5.73777e-07	0.080356	0.08012914545790942
5.74737e-07	0.0821138	0.0814121750196081
5.75698e-07	0.0832281	0.08208553480733094
5.76658e-07	0.083426	0.08222236362313445
5.77618e-07	0.0827368	0.0819559710036991
5.78578e-07	0.0814169	0.08122385234850804
5.79538e-07	0.0799448	0.08028915769050918
5.80498e-07	0.078846	0.07955933956819485
5.81458e-07	0.078385	0.07916786895975358
5.82418e-07	0.0785431	0.07910825650173824
5.83378e-07	0.0789207	0.07928400121820772
5.84338e-07	0.0794887	0.07977319489103107
5.85299e-07	0.0800622	0.08049766134851552
5.86259e-07	0.0811619	0.081513636268755
5.87219e-07	0.0825865	0.08277926038241135
5.88179e-07	0.0842951	0.08420993922527514
5.89139e-07	0.0858654	0.08562001112962773
5.90099e-07	0.0869722	0.08693472649395471
5.91059e-07	0.087987	0.08827904047256165
5.92019e-07	0.0892692	0.08984411837703353
5.92979e-07	0.091456	0.09191559609825879
5.93939e-07	0.0944786	0.09458577865976568
5.94899e-07	0.0977202	0.0973848196043777
5.9586e-07	0.100526	0.09946996945490844
5.9682e-07	0.102053	0.10035831080694527
5.9778e-07	0.102016	0.10046152383633956
5.9874e-07	0.100838	0.09996656202630269
5.997e-07	0.0990193	0.09864066958801722
6.0066e-07	0.0968777	0.09671718365084399
6.0162e-07	0.094554	0.09451617589381574
6.0258e-07	0.0921378	0.09227742229338878
6.0354e-07	0.089853	0.09028753834884269
6.045e-07	0.08807	0.08887323651115309
6.05461e-07	0.0870615	0.08816721085391002
6.06421e-07	0.0868405	0.08801924554284928
6.07381e-07	0.0874117	0.0882741063565442
6.08341e-07	0.088795	0.08898598257935147
6.09301e-07	0.0904907	0.08983264335391532
6.10261e-07	0.0914802	0.09039102210855199
6.11221e-07	0.0912537	0.09068632111316
6.12181e-07	0.0904687	0.09089939113016389
6.13141e-07	0.0901885	0.09116029090835935
6.14101e-07	0.0908899	0.09161949816718956
6.15062e-07	0.0923323	0.0923230415916129
6.16022e-07	0.093872	0.09292005412875536
6.16982e-07	0.0946384	0.09309911445464258
6.17942e-07	0.0939099	0.09295770212714888
6.18902e-07	0.0920151	0.09256252730151014
6.19862e-07	0.0905531	0.09241291745678981
6.20822e-07	0.0910822	0.09261579293735878
6.21782e-07	0.093452	0.09335106267436681
6.22742e-07	0.095844	0.09385538584643718
6.23702e-07	0.0962977	0.09371515162232721
6.24662e-07	0.0938101	0.09247089670133682
6.25623e-07	0.0888241	0.0886383876332163
6.26583e-07	0.083268	0.08400299880554912
6.27543e-07	0.07951	0.08171233639166509
6.28503e-07	0.0787468	0.08134722946885899
6.29463e-07	0.0804555	0.08171691380909622
6.30423e-07	0.0832456	0.08336268654323321
6.31383e-07	0.0859456	0.08548741620762362
6.32343e-07	0.0879164	0.08716256377221149
6.33303e-07	0.0889378	0.08827754688146772
6.34263e-07	0.089301	0.08905259304054898
6.35224e-07	0.0895392	0.08969191430994923
6.36184e-07	0.0899795	0.09032751647797511
6.37144e-07	0.0907764	0.09101446087486002
6.38104e-07	0.0919647	0.09162581807642738
6.39064e-07	0.0931552	0.09182095543516618
6.40024e-07	0.0934744	0.09156476719331831
6.40984e-07	0.0919382	0.09043465856527783
6.41944e-07	0.0879209	0.08723888137892988
6.42904e-07	0.0815797	0.08137935209167997
6.43864e-07	0.0739779	0.0740859362857004
6.44824e-07	0.066999	0.06770609929874932
6.45785e-07	0.062602	0.06461581870565758
6.46745e-07	0.0613465	0.0640528000200473
6.47705e-07	0.0623957	0.06429598313291736
6.48665e-07	0.0654537	0.06614829945093585
6.49625e-07	0.0698132	0.06972170297452854
6.50585e-07	0.0749772	0.0732200259504305
6.51545e-07	0.0740595	0.07482938124954447
6.52505e-07	0.07667	0.07688848550972388
6.53465e-07	0.0794213	0.07885091555199877
6.54425e-07	0.0815125	0.07985941842548334
6.55386e-07	0.0822601	0.07991170313785
6.56346e-07	0.0808337	0.07920547396923341
6.57306e-07	0.0769594	0.07661272814596931
6.58266e-07	0.0720614	0.07330532969844941
6.59226e-07	0.0689316	0.07245016399213866
6.60186e-07	0.0699477	0.07266424998208548
6.61146e-07	0.0751771	0.07575471330949085
6.62106e-07	0.0822434	0.08209549404002608
6.63066e-07	0.0882749	0.0877155583738971
6.64026e-07	0.0920961	0.09131675713236355
6.64986e-07	0.0945128	0.09327967592373532
6.65947e-07	0.0960619	0.09387169071385536
6.66907e-07	0.0956922	0.09370466101572372
6.67867e-07	0.0931253	0.09231829932784133
6.68827e-07	0.089625	0.08941151263834676
6.69787e-07	0.0857665	0.0858786967290255
6.70747e-07	0.0818884	0.08269867052229024
6.71707e-07	0.0794662	0.08081843807667463
6.72667e-07	0.0791204	0.0798106587013944
6.73627e-07	0.0793373	0.07907656247449053
6.74587e-07	0.0789611	0.07830644235704882
6.75548e-07	0.0780384	0.07727635887651663
6.76508e-07	0.0764233	0.07570376891171218
6.77468e-07	0.0736241	0.07334390672924547
6.78428e-07	0.0699821	0.07077667105414744
6.79388e-07	0.0671788	0.06975027900343772
6.80348e-07	0.0670063	0.06983123091396919
6.81308e-07	0.0701031	0.07139736376300541
6.82268e-07	0.0762616	0.07666636621107456
6.83228e-07	0.0851494	0.08531193464469054
6.84188e-07	0.0965751	0.09662331641892899
6.85149e-07	0.109299	0.10919248621617679
6.86109e-07	0.120108	0.11900118020983336
6.87069e-07	0.125682	0.12101278496545417
6.88029e-07	0.124235	0.12096500045274457
6.88989e-07	0.116187	0.11578215456304622
6.89949e-07	0.104524	0.10458940449490683
6.90909e-07	0.0939515	0.09478088606570173
6.91869e-07	0.0882926	0.09167135262817036
6.92829e-07	0.0881659	0.09158263473303514
6.93789e-07	0.0918565	0.09290105460022936
6.94749e-07	0.0973567	0.09722147093236523
6.9571e-07	0.10248	0.10113065332253965
6.9667e-07	0.104951	0.10265426651946631
6.9763e-07	0.104199	0.10328667043885124
6.9859e-07	0.102336	0.10378170796978686
6.9955e-07	0.102445	0.10448161237910482
7.0051e-07	0.105594	0.10620807301066659
7.0147e-07	0.109424	0.10916915810172582
7.0243e-07	0.111792	0.11203949658813712
7.0339e-07	0.114447	0.11532875007504773
7.0435e-07	0.120864	0.12128000957197586
7.05311e-07	0.131084	0.13111397459587015
7.06271e-07	0.141585	0.1414388332252254
7.07231e-07	0.150279	0.14948469134769826
7.08191e-07	0.156095	0.15210945389454558
7.09151e-07	0.156059	0.15211135490771052
7.10111e-07	0.148737	0.14811776401121593
7.11071e-07	0.136222	0.13618435948296656
7.12031e-07	0.122677	0.12302269374251848
7.12991e-07	0.113372	0.11705104129888191
7.13951e-07	0.112211	0.11706265202044262
7.14911e-07	0.119537	0.12028987496501557
7.15872e-07	0.132463	0.1325546243110096
7.16832e-07	0.148875	0.1489055562338125
7.17792e-07	0.167661	0.1676625904226027
7.18752e-07	0.186572	0.1865578075456033
7.19712e-07	0.204162	0.204148004559775
7.20672e-07	0.220749	0.2207280065487335
7.21632e-07	0.236265	0.23613519571874347
7.22592e-07	0.247928	0.2470653685837347
7.23552e-07	0.253664	0.2509638470063904
7.24512e-07	0.252852	0.2522453125951317
7.25473e-07	0.250966	0.25337547964611784
7.26433e-07	0.254247	0.25566472079906283
7.27393e-07	0.262649	0.2620396421949282
7.28353e-07	0.269341	0.26453389033901226
7.29313e-07	0.268109	0.26454290946586706
7.30273e-07	0.258021	0.25766977949712055
7.31233e-07	0.238889	0.23884860524338392
7.32193e-07	0.213601	0.21358893884446611
7.33153e-07	0.183995	0.1839963026203008
7.34113e-07	0.154973	0.1549955957942706
7.35074e-07	0.1318	0.13242078651855302
7.36034e-07	0.121642	0.12866916036544335
7.36994e-07	0.126628	0.128826367674188
7.37954e-07	0.143875	0.14394414427303803
7.38914e-07	0.167478	0.16747477209682826
7.39874e-07	0.190388	0.1903350825238419
7.40834e-07	0.207728	0.20718365180528928
7.41794e-07	0.215728	0.2122825151782895
7.42754e-07	0.216588	0.21232648916747415
7.43714e-07	0.211805	0.2106361269034675
7.44674e-07	0.203557	0.2032579599925168
7.45635e-07	0.190479	0.19041520360986544
7.46595e-07	0.174763	0.17492977860730907
7.47555e-07	0.162364	0.16605957521405718
7.48515e-07	0.16098	0.1661315456660303
7.49475e-07	0.168971	0.16963356600225887
7.50435e-07	0.181498	0.18162847935119503
7.51395e-07	0.200441	0.20048312922944514
7.52355e-07	0.226426	0.22642998083505902
7.53315e-07	0.253696	0.2536687483251852
7.54275e-07	0.274981	0.27483039058982567
7.55236e-07	0.288194	0.28663382373746055
7.56196e-07	0.291932	0.28908013747770567
7.57156e-07	0.289613	0.29018405674510994
7.58116e-07	0.288184	0.2913585227743833
7.59076e-07	0.295303	0.29601294259778804
7.60036e-07	0.309651	0.3096456793256169
7.60996e-07	0.323324	0.32313905989378633
7.61956e-07	0.333204	0.3324483675195417
7.62916e-07	0.337795	0.33686060743983076
7.63876e-07	0.339458	0.3396291469067006
7.64836e-07	0.341511	0.3425820905961178
7.65797e-07	0.347576	0.34814164264255754
7.66757e-07	0.359589	0.35967111691239184
7.67717e-07	0.373653	0.3736799390117324
7.68677e-07	0.388909	0.3889065061203435
7.69637e-07	0.404213	0.40407700687217546
7.70597e-07	0.415468	0.41474958621335645
7.71557e-07	0.421846	0.4181975924415727
7.72517e-07	0.422367	0.4182116230156214
7.73477e-07	0.416573	0.4156239667062987
7.74437e-07	0.405268	0.40512508987032536
7.75398e-07	0.389632	0.389731195825475
7.76358e-07	0.376759	0.3781952461023963
7.77318e-07	0.373248	0.3753349426980399
7.78278e-07	0.374525	0.37387184343729957
7.79238e-07	0.375056	0.37228847359300477
7.80198e-07	0.36337	0.3631091417838794
7.81158e-07	0.342786	0.3429800929940061
7.82118e-07	0.33245	0.3323421044130604
7.83078e-07	0.318455	0.31836715474246513
7.84038e-07	0.298435	0.2984071172674023
7.84998e-07	0.273718	0.273708178739874
7.85959e-07	0.245968	0.24597343005497754
7.86919e-07	0.219763	0.2199793339780665
7.87879e-07	0.204579	0.2113749298526341
7.88839e-07	0.208491	0.21135915855194853
7.89799e-07	0.227588	0.2276220809324807
7.90759e-07	0.248628	0.24858732100537045
7.91719e-07	0.265488	0.26543798659521883
7.92679e-07	0.279654	0.27960906959377857
7.93639e-07	0.292175	0.29218292359836745
7.94599e-07	0.304923	0.30498460755573104
7.9556e-07	0.320386	0.3203859233440909
7.9652e-07	0.336045	0.3358107518333073
7.9748e-07	0.346678	0.3439067370868061
7.9844e-07	0.349425	0.34401741817908454
7.994e-07	0.343746	0.34242794192955883
8.0036e-07	0.328879	0.32877115336073026
8.0132e-07	0.305073	0.3050795175316481
8.0228e-07	0.280746	0.2838619906806647
8.0324e-07	0.276975	0.28377697256730405
8.042e-07	0.30576	0.3057898915105474
8.05161e-07	0.349612	0.34960893110134156
8.06121e-07	0.388117	0.38809899740503667
8.07081e-07	0.415097	0.41502097831059254
8.08041e-07	0.431755	0.4313847591918488
8.09001e-07	0.440419	0.4387116082714501
8.09961e-07	0.443197	0.44018254906252247
8.10921e-07	0.442266	0.44038115108678366
8.11881e-07	0.439906	0.4400495534884865
8.12841e-07	0.437844	0.4397794980645212
8.13801e-07	0.437016	0.4400055199745007
8.14761e-07	0.440105	0.44167849383392865
8.15722e-07	0.449346	0.4495622216911737
8.16682e-07	0.461522	0.4614245434862105
8.17642e-07	0.472009	0.4711110195519476
8.18602e-07	0.477377	0.4743085801981926
8.19562e-07	0.477048	0.4748771222285357
8.20522e-07	0.474525	0.47519287704911894
8.21482e-07	0.473435	0.47548137365222026
8.22442e-07	0.47437	0.47619277940681304
8.23402e-07	0.477197	0.4783451188855323
8.24362e-07	0.483513	0.48393025196616984
8.25323e-07	0.49323	0.49329730347779366
8.26283e-07	0.503832	0.5037678755959264
8.27243e-07	0.513435	0.5131979979950378
8.28203e-07	0.520695	0.520122521618483
8.29163e-07	0.525391	0.5239099937161821
8.30123e-07	0.527917	0.524774952910009
8.31083e-07	0.52753	0.524598495447283
8.32043e-07	0.522686	0.5217263345799532
8.33003e-07	0.512314	0.5121731331190272
8.33963e-07	0.49896	0.4991885365955856
8.34923e-07	0.490046	0.4905849808196477
8.35884e-07	0.485735	0.4855016534262861
8.36844e-07	0.47978	0.47933048909753573
8.37804e-07	0.468906	0.4687011563852217
8.38764e-07	0.449008	0.44896094409614035
8.39724e-07	0.417633	0.41762299684212306
8.40684e-07	0.376309	0.3763091327214731
8.41644e-07	0.335107	0.33513835571863365
8.42604e-07	0.310798	0.31122442174561354
8.43564e-07	0.303442	0.3034917008695578
8.44524e-07	0.296286	0.2959791195630461
8.45485e-07	0.283486	0.283777385560508
8.46445e-07	0.272243	0.27811965320694726
8.47405e-07	0.274393	0.27796068162227744
8.48365e-07	0.297183	0.2972301416757495
8.49325e-07	0.335736	0.33573804026069204
8.50285e-07	0.377315	0.37730971435645755
8.51245e-07	0.412206	0.41218563496742505
8.52205e-07	0.437447	0.43738193415425225
8.53165e-07	0.454215	0.45409308510335494
8.54125e-07	0.465892	0.46583260148532246
8.55086e-07	0.476458	0.47639529835496847
8.56046e-07	0.486138	0.4859751159618253
8.57006e-07	0.493731	0.4936770539555995
8.57966e-07	0.500882	0.5009445709301596
8.58926e-07	0.508988	0.5087967892442359
8.59886e-07	0.515511	0.5151987321610885
8.60846e-07	0.520093	0.5201313470185758
8.61806e-07	0.52537	0.5251434840636443
8.62766e-07	0.53038	0.5287896806432087
8.63726e-07	0.532939	0.5294718321950168
