lambda	signal	optima_preserving_denoising
4e-07	0.0971231	0.10067591011924118
4.0048e-07	0.0978365	0.10072383790370179
4.0096e-07	0.0986316	0.10082508087945034
4.0144e-07	0.0993799	0.10098241920303118
4.0192e-07	0.10017	0.10119573139663546
4.024e-07	0.10092	0.10146159172041924
4.0288e-07	0.101378	0.1017740727584716
4.0336e-07	0.101516	0.10212798001864691
4.0384e-07	0.101607	0.10252104780175253
4.0432e-07	0.101864	0.10295251850914534
4.048e-07	0.102253	0.10342085593459577
4.05281e-07	0.102725	0.10392362580583493
4.05761e-07	0.103402	0.10445778059930481
4.06241e-07	0.104417	0.10501720978322748
4.06721e-07	0.105672	0.10558933414090185
4.07201e-07	0.106894	0.10615642250073219
4.07681e-07	0.107901	0.10670190007774948
4.08161e-07	0.108702	0.10721467348245367
4.08641e-07	0.109357	0.10768854701205717
4.09121e-07	0.109823	0.10812037172880891
4.09601e-07	0.110019	0.10850963169465956
4.10081e-07	0.109981	0.10885813719942225
4.10561e-07	0.109896	0.10916857111063116
4.11041e-07	0.109961	0.10944259196708733
4.11521e-07	0.110236	0.10967989621047104
4.12001e-07	0.110646	0.10987873490993796
4.12481e-07	0.111086	0.11003718540201045
4.12961e-07	0.111514	0.11015416863237457
4.13441e-07	0.111935	0.11022980549562057
4.13921e-07	0.112314	0.11026544924081028
4.14401e-07	0.112551	0.11026367368224227
4.14881e-07	0.112531	0.1102252295039047
4.15362e-07	0.112208	0.11014718774905727
4.15842e-07	0.11165	0.11002738421169211
4.16322e-07	0.110997	0.10986534369572874
4.16802e-07	0.110386	0.10966262541897957
4.17282e-07	0.109889	0.1094223111559921
4.17762e-07	0.109514	0.1091480912138369
4.18242e-07	0.109231	0.10884352478813934
4.18722e-07	0.10901	0.10851172087123036
4.19202e-07	0.108825	0.10815526181028347
4.19682e-07	0.108641	0.10777627296892861
4.20162e-07	0.108403	0.10737671878054036
4.20642e-07	0.108035	0.1069590845082938
4.21122e-07	0.107468	0.10652757241674853
4.21602e-07	0.106671	0.10608951398331981
4.22082e-07	0.105671	0.10565625737241245
4.22562e-07	0.104559	0.10524253848984949
4.23042e-07	0.103459	0.10486384534751043
4.23522e-07	0.102497	0.10453295951757532
4.24002e-07	0.101768	0.10425759803513183
4.24482e-07	0.101317	0.1040402400959196
4.24962e-07	0.101137	0.10387957202589548
4.25443e-07	0.101179	0.1037723073464283
4.25923e-07	0.101375	0.10371455494066392
4.26403e-07	0.101649	0.10370251872200671
4.26883e-07	0.101938	0.10373606644768163
4.27363e-07	0.102202	0.10381861215774743
4.27843e-07	0.102422	0.10395195698250176
4.28323e-07	0.102608	0.1041368378283534
4.28803e-07	0.102796	0.10437331295802664
4.29283e-07	0.103033	0.10466101115986975
4.29763e-07	0.103375	0.10499909406127722
4.30243e-07	0.103869	0.10538577413525667
4.30723e-07	0.104542	0.10581743745822217
4.31203e-07	0.105393	0.10628759795538435
4.31683e-07	0.106387	0.10678617137119072
4.32163e-07	0.107462	0.10729975918786679
4.32643e-07	0.108535	0.10781326078376186
4.33123e-07	0.109522	0.10831246200420583
4.33603e-07	0.110349	0.1087864005383076
4.34083e-07	0.110965	0.1092285696133965
4.34563e-07	0.111352	0.10963674232726849
4.35044e-07	0.11153	0.1100118962595365
4.35524e-07	0.111548	0.11035688637297203
4.36004e-07	0.111479	0.11067534762852746
4.36484e-07	0.111399	0.1109709153272379
4.36964e-07	0.111379	0.11124679007088087
4.37444e-07	0.111468	0.11150551608697178
4.37924e-07	0.111685	0.1117489449073678
4.38404e-07	0.112022	0.11197834375360677
4.38884e-07	0.112441	0.11219459152407578
4.39364e-07	0.112888	0.1123984548651003
4.39844e-07	0.113299	0.11259084477638535
4.40324e-07	0.113617	0.11277300657597293
4.40804e-07	0.1138	0.11294657992530668
4.41284e-07	0.113827	0.11311355059442098
4.41764e-07	0.113708	0.11327614510555802
4.42244e-07	0.113477	0.11343668723814238
4.42724e-07	0.113194	0.11359746508048212
4.43204e-07	0.112931	0.11376057125044557
4.43684e-07	0.11276	0.11392770975181352
4.44164e-07	0.112746	0.11409993195456283
4.44644e-07	0.112929	0.11427727151830215
4.45125e-07	0.113321	0.11445833790962578
4.45605e-07	0.113901	0.11463998427312161
4.46085e-07	0.114618	0.114817274585716
4.46565e-07	0.115399	0.11498395450037828
4.47045e-07	0.116158	0.11513342106086634
4.47525e-07	0.116812	0.11525987974502615
4.48005e-07	0.117293	0.11535919264586081
4.48485e-07	0.117561	0.11542912383567779
4.48965e-07	0.117606	0.11546903097566798
4.49445e-07	0.117454	0.11547930909323206
4.49925e-07	0.117153	0.11545976849751698
4.50405e-07	0.116772	0.11540737700463444
4.50885e-07	0.116376	0.11531986881731811
4.51365e-07	0.116024	0.11519618866101893
4.51845e-07	0.115751	0.11503635901480579
4.52325e-07	0.115563	0.11484109699166092
4.52805e-07	0.115441	0.11461136617342621
4.53285e-07	0.115344	0.11434804529231138
4.53765e-07	0.115219	0.11405183872586046
4.54245e-07	0.115011	0.11372347484372505
4.54725e-07	0.114672	0.11336419385746609
4.55206e-07	0.114175	0.11297649425879534
4.55686e-07	0.113512	0.11256495283951655
4.56166e-07	0.112705	0.11213692372869782
4.56646e-07	0.111793	0.11170263214974428
4.57126e-07	0.110834	0.11127446267947935
4.57606e-07	0.109894	0.11086536885732248
4.58086e-07	0.109037	0.11048694318878058
4.58566e-07	0.108319	0.11014791082899564
4.59046e-07	0.107778	0.10985353382276797
4.59526e-07	0.107433	0.10960595181751671
4.60006e-07	0.10728	0.10940505608168233
4.60486e-07	0.107294	0.10924946050942898
4.60966e-07	0.107434	0.10913732310950586
4.61446e-07	0.107648	0.10906682106547852
4.61926e-07	0.107879	0.109036431417017
4.62406e-07	0.108074	0.10904523004288538
4.62886e-07	0.108198	0.10909529348023754
4.63366e-07	0.108238	0.1091879924874114
4.63846e-07	0.108208	0.10932441222675467
4.64326e-07	0.108136	0.10950575805337619
4.64806e-07	0.108069	0.1097338002782837
4.65287e-07	0.108063	0.1100110925300735
4.65767e-07	0.108179	0.11034100665053458
4.66247e-07	0.108473	0.11072740594586537
4.66727e-07	0.108987	0.11117386389837441
4.67207e-07	0.109718	0.11168228873146863
4.67687e-07	0.110672	0.11225141722473203
4.68167e-07	0.111805	0.11287475752634578
4.68647e-07	0.113048	0.11353962418582053
4.69127e-07	0.114324	0.11422805339481026
4.69607e-07	0.115554	0.11491960581757782
4.70087e-07	0.116669	0.11559510234030973
4.70567e-07	0.117619	0.11623961553802933
4.71047e-07	0.118384	0.11684366352395342
4.71527e-07	0.118967	0.11740260864107785
4.72007e-07	0.119398	0.11791523809057283
4.72487e-07	0.119718	0.11838215996843111
4.72967e-07	0.119975	0.11880458926318183
4.73447e-07	0.120207	0.119183553146405
4.73927e-07	0.120444	0.11951956974894211
4.74407e-07	0.120705	0.11981261012377932
4.74887e-07	0.120999	0.12006227593875346
4.75368e-07	0.121327	0.12026811451002982
4.75848e-07	0.121685	0.12042999863582271
4.76328e-07	0.122054	0.12054849249566381
4.76808e-07	0.1224	0.12062515066585273
4.77288e-07	0.122674	0.12066262769190035
4.77768e-07	0.12282	0.1206645325022043
4.78248e-07	0.122793	0.12063248177708247
4.78728e-07	0.122571	0.1205655071508588
4.79208e-07	0.122169	0.12046359178985697
4.79688e-07	0.121633	0.12032824803958082
4.80168e-07	0.12102	0.12016287391650302
4.80648e-07	0.120382	0.11997268594189539
4.81128e-07	0.119752	0.11976421072570699
4.81608e-07	0.11915	0.11954454627407798
4.82088e-07	0.118591	0.11932060930167532
4.82568e-07	0.118104	0.11909851901852006
4.83048e-07	0.117728	0.11888312139066744
4.83528e-07	0.117494	0.11867773230587539
4.84008e-07	0.117407	0.11848417459135277
4.84488e-07	0.117436	0.11830308283536535
4.84968e-07	0.117526	0.11813435398957445
4.85449e-07	0.117622	0.11797759011185167
4.85929e-07	0.117698	0.11783241296258332
4.86409e-07	0.117751	0.11769861825579699
4.86889e-07	0.11778	0.11757622645085657
4.87369e-07	0.117768	0.11746553896063808
4.87849e-07	0.117677	0.11736720636163699
4.88329e-07	0.117481	0.11728230790459446
4.88809e-07	0.117185	0.11721231002537864
4.89289e-07	0.116835	0.11715887611997218
4.89769e-07	0.11649	0.11712357393277735
4.90249e-07	0.116192	0.11710758219804313
4.90729e-07	0.115954	0.1171112301494991
4.91209e-07	0.115779	0.11713420653905232
4.91689e-07	0.115679	0.11717820447540861
4.92169e-07	0.115685	0.11724490075319569
4.92649e-07	0.115825	0.11733581479136729
4.93129e-07	0.116099	0.11745197671162996
4.93609e-07	0.116475	0.11759360415902709
4.94089e-07	0.116899	0.11775985285705694
4.94569e-07	0.117335	0.1179488193440444
4.9505e-07	0.117774	0.11815769195760001
4.9553e-07	0.118221	0.11838292327889628
4.9601e-07	0.118663	0.11862037992231547
4.9649e-07	0.119058	0.11886560969553621
4.9697e-07	0.11937	0.11911429094576376
4.9745e-07	0.119608	0.11936260405280469
4.9793e-07	0.119827	0.11960723494076596
4.9841e-07	0.120071	0.1198450385758241
4.9889e-07	0.120334	0.1200727819210484
4.9937e-07	0.120584	0.1202872152584807
4.9985e-07	0.120824	0.12048529001471932
5.0033e-07	0.121109	0.12066418785255996
5.0081e-07	0.121467	0.12082118598248724
5.0129e-07	0.121853	0.12095378967465747
5.0177e-07	0.122186	0.12106016467688765
5.0225e-07	0.122436	0.12113948004853073
5.0273e-07	0.122637	0.1211918829963156
5.0321e-07	0.122799	0.12121829511614989
5.0369e-07	0.122858	0.1212202847962558
5.0417e-07	0.122748	0.12119841221199684
5.0465e-07	0.122494	0.12115219176664625
5.05131e-07	0.122181	0.12108193646159639
5.05611e-07	0.121842	0.12098884609376744
5.06091e-07	0.121433	0.12087494097817662
5.06571e-07	0.120951	0.12074308089506701
5.07051e-07	0.120486	0.12059686067852374
5.07531e-07	0.120122	0.12044008255557627
5.08011e-07	0.119836	0.12027612917523998
5.08491e-07	0.11957	0.12010780607552404
5.08971e-07	0.119348	0.119937464871138
5.09451e-07	0.119243	0.11976690063413578
5.09931e-07	0.119241	0.11959712306894302
5.10411e-07	0.119247	0.11942851611057793
5.10891e-07	0.119224	0.11926130011745058
5.11371e-07	0.119225	0.11909576456684172
5.11851e-07	0.119255	0.11893216945905621
5.12331e-07	0.119224	0.11877083289258408
5.12811e-07	0.119079	0.11861255268968912
5.13291e-07	0.118875	0.11845888709413252
5.13771e-07	0.11865	0.11831202039406022
5.14251e-07	0.118355	0.11817465261136906
5.14731e-07	0.117957	0.11805010261107128
5.15212e-07	0.117531	0.11794220157362599
5.15692e-07	0.117145	0.11785474360972119
5.16172e-07	0.116781	0.11779101556769249
5.16652e-07	0.116427	0.11775357454794158
5.17132e-07	0.116149	0.11774403946609806
5.17612e-07	0.116005	0.11776189501081298
5.18092e-07	0.11597	0.1178094186294652
5.18572e-07	0.116015	0.11789004569994706
5.19052e-07	0.116171	0.11800716114022998
5.19532e-07	0.116457	0.11816380724753286
5.20012e-07	0.116828	0.11836227960404974
5.20492e-07	0.117243	0.11860390594611464
5.20972e-07	0.117709	0.11888905918747258
5.21452e-07	0.11823	0.11921705341548758
5.21932e-07	0.118773	0.11958607523853172
5.22412e-07	0.119306	0.11999354017353653
5.22892e-07	0.11984	0.12043666705081743
5.23372e-07	0.120398	0.12091264237725949
5.23852e-07	0.120962	0.12141849573985594
5.24332e-07	0.121503	0.12195143841334838
5.24812e-07	0.122054	0.12250942469242837
5.25293e-07	0.122647	0.12309072544281542
5.25773e-07	0.123247	0.12369333131424368
5.26253e-07	0.123838	0.12431546826679266
5.26733e-07	0.12448	0.12495586840093797
5.27213e-07	0.12518	0.12561251558236203
5.27693e-07	0.125885	0.1262822652188659
5.28173e-07	0.126619	0.12696176037289023
5.28653e-07	0.127436	0.12764677257736448
5.29133e-07	0.128287	0.1283308015605866
5.29613e-07	0.129131	0.1290060488396314
5.30093e-07	0.130014	0.12966436254866476
5.30573e-07	0.130931	0.13029637687807877
5.31053e-07	0.131799	0.13089205280786734
5.31533e-07	0.132613	0.13144281194008206
5.32013e-07	0.133408	0.13194183279241872
5.32493e-07	0.134121	0.1323837369792206
5.32973e-07	0.134692	0.13276563305130643
5.33453e-07	0.135175	0.13308734839013692
5.33933e-07	0.135571	0.13335027912997102
5.34413e-07	0.135799	0.13355704335877783
5.34893e-07	0.135895	0.1337114264133423
5.35374e-07	0.135936	0.13381761036821177
5.35854e-07	0.13585	0.1338797095049919
5.36334e-07	0.135632	0.13390180921977576
5.36814e-07	0.135409	0.13388592318160478
5.37294e-07	0.135139	0.13382997323066032
5.37774e-07	0.13476	0.13373407124393466
5.38254e-07	0.13442	0.13359957749455717
5.38734e-07	0.134105	0.1334286283173164
5.39214e-07	0.133707	0.13322375128055855
5.39694e-07	0.133363	0.13298809649363924
5.40174e-07	0.133083	0.13272454413481932
5.40654e-07	0.13273	0.13243526464561203
5.41134e-07	0.132417	0.13212248983032698
5.41614e-07	0.132171	0.13178767831319732
5.42094e-07	0.131848	0.1314311418863315
5.42574e-07	0.131529	0.13105325981681726
5.43054e-07	0.131258	0.1306538392148613
5.43534e-07	0.130896	0.13023161203141248
5.44014e-07	0.130497	0.12978570774007503
5.44494e-07	0.13012	0.12931521484106714
5.44974e-07	0.129639	0.12881844546264798
5.45455e-07	0.129097	0.12829463272926486
5.45935e-07	0.12856	0.12774359823019035
5.46415e-07	0.127925	0.1271648079821971
5.46895e-07	0.127225	0.126559159424961
5.47375e-07	0.126536	0.1259287252450278
5.47855e-07	0.125773	0.12527540913282478
5.48335e-07	0.124963	0.12460269892428212
5.48815e-07	0.124189	0.12391530955947491
5.49295e-07	0.123361	0.12321737746365215
5.49775e-07	0.122519	0.12251449087315319
5.50255e-07	0.121731	0.12181283162279732
5.50735e-07	0.120899	0.12111760045461095
5.51215e-07	0.120095	0.12043530261665679
5.51695e-07	0.11932	0.11977208082539911
5.52175e-07	0.118541	0.11913373200526353
5.52655e-07	0.117789	0.11852637509273162
5.53135e-07	0.117068	0.1179557211481001
5.53615e-07	0.116385	0.11742693736815968
5.54095e-07	0.115715	0.11694445615496817
5.54575e-07	0.115143	0.11651220024804812
5.55056e-07	0.114597	0.11613241782587236
5.55536e-07	0.114142	0.11580662727833535
5.56016e-07	0.11377	0.11553498508712705
5.56496e-07	0.113486	0.11531661296482432
5.56976e-07	0.113264	0.11514975222627888
5.57456e-07	0.113162	0.11503209934704713
5.57936e-07	0.113099	0.11496069857891097
5.58416e-07	0.113113	0.1149324480036898
5.58896e-07	0.113192	0.1149444732480537
5.59376e-07	0.113332	0.11499820933256268
5.59856e-07	0.113465	0.11509493597776675
5.60336e-07	0.113692	0.11523540347939308
5.60816e-07	0.114046	0.11541947273240893
5.61296e-07	0.114446	0.115645810915478
5.61776e-07	0.114889	0.11591203026426784
5.62256e-07	0.115332	0.11621479494471408
5.62736e-07	0.115868	0.11655029672528905
5.63216e-07	0.116414	0.1169136385432865
5.63696e-07	0.116977	0.11729967915377285
5.64176e-07	0.117608	0.11770322055085604
5.64656e-07	0.118195	0.11811863330728259
5.65137e-07	0.118794	0.11854130828288308
5.65617e-07	0.119393	0.1189671969554692
5.66097e-07	0.1199	0.11939303338887226
5.66577e-07	0.1204	0.11981739678760268
5.67057e-07	0.120822	0.12023963451815073
5.67537e-07	0.121136	0.12066052306666222
5.68017e-07	0.12144	0.12108241224011064
5.68497e-07	0.121622	0.1215080342158409
5.68977e-07	0.121764	0.12194167040475948
5.69457e-07	0.121921	0.12238834132369096
5.69937e-07	0.122005	0.12285335562811422
5.70417e-07	0.122198	0.12334362911022115
5.70897e-07	0.122436	0.12386583519489415
5.71377e-07	0.122745	0.12442744878997454
5.71857e-07	0.123276	0.12503676216852344
5.72337e-07	0.123856	0.1257002222318783
5.72817e-07	0.124662	0.12642524336655991
5.73297e-07	0.125622	0.12721591488291434
5.73777e-07	0.12665	0.12807306288333498
5.74257e-07	0.127916	0.1289957966191858
5.74737e-07	0.129155	0.12997435927216283
5.75218e-07	0.130522	0.13099867940021495
5.75698e-07	0.131927	0.1320522155431058
5.76178e-07	0.133246	0.13311561414074866
5.76658e-07	0.134664	0.13417300191980508
5.77138e-07	0.135901	0.13520406407273153
5.77618e-07	0.137146	0.13619683749727582
5.78098e-07	0.1383	0.13713916360562253
5.78578e-07	0.139285	0.13802266052749623
5.79058e-07	0.140292	0.13884436932329264
5.79538e-07	0.14107	0.13960002296542828
5.80018e-07	0.141843	0.14029080440815245
5.80498e-07	0.142494	0.14091674050662464
5.80978e-07	0.143019	0.14147940466324457
5.81458e-07	0.143562	0.1419813471699232
5.81938e-07	0.143918	0.14242383217140642
5.82418e-07	0.144317	0.14280963338111896
5.82898e-07	0.144606	0.14314018902334816
5.83378e-07	0.144846	0.14341739512174997
5.83858e-07	0.145107	0.14364295774323288
5.84338e-07	0.145232	0.14381822321903373
5.84818e-07	0.145426	0.14394496421591974
5.85299e-07	0.1455	0.14402476339282874
5.85779e-07	0.145574	0.1440595290176027
5.86259e-07	0.145619	0.14405149114293123
5.86739e-07	0.145559	0.1439999459218285
5.87219e-07	0.145541	0.14390230498942239
5.87699e-07	0.145377	0.14375572674802578
5.88179e-07	0.145238	0.14355771237483508
5.88659e-07	0.144999	0.1433053934469728
5.89139e-07	0.144702	0.142996062299127
5.89619e-07	0.144378	0.14262694860657418
5.90099e-07	0.143916	0.14219481768518827
5.90579e-07	0.143456	0.1416971184879973
5.91059e-07	0.142842	0.14113026615714583
5.91539e-07	0.142187	0.14049185295853212
5.92019e-07	0.141421	0.13977892503062322
5.92499e-07	0.14054	0.13898933325991134
5.92979e-07	0.139601	0.13812231715956427
5.93459e-07	0.138501	0.1371770353913511
5.93939e-07	0.137358	0.13615652528867522
5.94419e-07	0.136075	0.13506396138654944
5.94899e-07	0.134722	0.13390736597930356
5.9538e-07	0.133302	0.13269741696669998
5.9586e-07	0.131778	0.1314479015549869
5.9634e-07	0.130273	0.1301788493011385
5.9682e-07	0.12867	0.12890967712834722
5.973e-07	0.127149	0.12766669447886683
5.9778e-07	0.125597	0.12647195820574575
5.9826e-07	0.124144	0.12534980990144423
5.9874e-07	0.122771	0.12431903070862325
5.9922e-07	0.121478	0.12339409255846621
5.997e-07	0.120374	0.12258496699592311
6.0018e-07	0.119321	0.12189417667297509
6.0066e-07	0.118524	0.1213217429833593
6.0114e-07	0.11777	0.12086156864301557
6.0162e-07	0.117279	0.12050663059339001
6.021e-07	0.116859	0.12024694178769338
6.0258e-07	0.116658	0.12007252370728001
6.0306e-07	0.116586	0.11997295307788072
6.0354e-07	0.116659	0.11993838803179915
6.0402e-07	0.116926	0.11996303668071483
6.045e-07	0.11726	0.12005301593324172
6.0498e-07	0.117824	0.12021225561670099
6.05461e-07	0.118393	0.12044143527190299
6.05941e-07	0.119181	0.12073800980178462
6.06421e-07	0.119932	0.12109421219503723
6.06901e-07	0.120838	0.12149897680064077
6.07381e-07	0.121692	0.12193647185056367
6.07861e-07	0.122597	0.12238948548938768
6.08341e-07	0.123458	0.1228394218475041
6.08821e-07	0.124257	0.12326887590502408
6.09301e-07	0.125034	0.12366286260064224
6.09781e-07	0.125654	0.1240089771323398
6.10261e-07	0.126282	0.12429901123193725
6.10741e-07	0.126693	0.1245272770127196
6.11221e-07	0.127134	0.1246919267455327
6.11701e-07	0.127337	0.12479301564414641
6.12181e-07	0.127576	0.12483312922049383
6.12661e-07	0.127587	0.12481660074392163
6.13141e-07	0.127612	0.12474160392707423
6.13621e-07	0.127439	0.12460057129810921
6.14101e-07	0.127232	0.1243861098578862
6.14581e-07	0.126863	0.12409054767977458
6.15062e-07	0.126393	0.12370677733900724
6.15542e-07	0.125798	0.12322813030741842
6.16022e-07	0.12503	0.12264884581851637
6.16502e-07	0.124171	0.12196553914243607
6.16982e-07	0.12308	0.12117630995088538
6.17462e-07	0.121939	0.12028562575408695
6.17942e-07	0.120536	0.11930036505577621
6.18422e-07	0.119141	0.11823950503588154
6.18902e-07	0.117501	0.11712444048585503
6.19382e-07	0.115945	0.1159918823579493
6.19862e-07	0.114207	0.11487652837365851
6.20342e-07	0.112645	0.11382275079203717
6.20822e-07	0.111002	0.11286288763451435
6.21302e-07	0.109633	0.11202662556644566
6.21782e-07	0.108293	0.11132557860764704
6.22262e-07	0.107298	0.11076373144137477
6.22742e-07	0.106419	0.11033283011043143
6.23222e-07	0.105909	0.11002122761727678
6.23702e-07	0.105559	0.10981382979453362
6.24182e-07	0.105547	0.10969638473585386
6.24662e-07	0.105691	0.10965564169093937
6.25143e-07	0.106095	0.10968448041065658
6.25623e-07	0.106612	0.10979354575134544
6.26103e-07	0.107285	0.10999222127210087
6.26583e-07	0.10802	0.11028680606358833
6.27063e-07	0.108816	0.11067987828517298
6.27543e-07	0.109641	0.11117005329039843
6.28023e-07	0.110463	0.11175277557475233
6.28503e-07	0.111303	0.11242199072148788
6.28983e-07	0.112117	0.11317107143597527
6.29463e-07	0.112973	0.11399514812321777
6.29943e-07	0.113817	0.1148903251052482
6.30423e-07	0.114755	0.11585610659669514
6.30903e-07	0.115712	0.11689232015470812
6.31383e-07	0.116811	0.11800235901728769
6.31863e-07	0.117959	0.11918813791586554
6.32343e-07	0.119285	0.12045453434136502
6.32823e-07	0.120682	0.12180210074787591
6.33303e-07	0.122257	0.12323265344619394
6.33783e-07	0.123898	0.12474082416847311
6.34263e-07	0.125678	0.12632089139354508
6.34743e-07	0.127506	0.12795916549560932
6.35224e-07	0.129409	0.12964054446357173
