lambda	signal	optima_preserving_denoising
4e-07	0.106123	0.10452822783887362
4.0048e-07	0.10538	0.10449784738342548
4.0096e-07	0.10475	0.1044361916168826
4.0144e-07	0.104386	0.10434356787397092
4.0192e-07	0.104346	0.10422100637334138
4.024e-07	0.104575	0.10406901793111813
4.0288e-07	0.104931	0.10388728927038629
4.0336e-07	0.105224	0.10367423074962999
4.0384e-07	0.105278	0.10342774125706591
4.0432e-07	0.10498	0.10314606335189982
4.048e-07	0.104311	0.10282953137462644
4.05281e-07	0.10335	0.10248213298774529
4.05761e-07	0.102247	0.10211228624182035
4.06241e-07	0.101181	0.1017316934934972
4.06721e-07	0.100312	0.10135260789583525
4.07201e-07	0.099741	0.10098504020157517
4.07681e-07	0.0994877	0.10063545779504546
4.08161e-07	0.0994859	0.10030718968653633
4.08641e-07	0.0996066	0.10000181817484925
4.09121e-07	0.0996964	0.099720725171068
4.09601e-07	0.0996204	0.09946632176117091
4.10081e-07	0.0992988	0.09924271296865955
4.10561e-07	0.0987276	0.099055563428128
4.11041e-07	0.0979821	0.0989110342373998
4.11521e-07	0.0971992	0.09881403663789717
4.12001e-07	0.0965371	0.09876670227457504
4.12481e-07	0.0961238	0.09876778192020383
4.12961e-07	0.0960335	0.09881484806198296
4.13441e-07	0.0963012	0.09891354601250706
4.13921e-07	0.0968903	0.09906891455442945
4.14401e-07	0.0976649	0.09928366887893426
4.14881e-07	0.0985275	0.09955705778961456
4.15362e-07	0.0993428	0.09988450892454044
4.15842e-07	0.100028	0.10025888115311875
4.16322e-07	0.100539	0.10067238673998924
4.16802e-07	0.100894	0.10111837748695705
4.17282e-07	0.101163	0.10159213808233047
4.17762e-07	0.101443	0.10209060182100901
4.18242e-07	0.101833	0.10261131363591806
4.18722e-07	0.102407	0.10315097255965655
4.19202e-07	0.103192	0.10370395873892312
4.19682e-07	0.104161	0.10426143912716622
4.20162e-07	0.105237	0.1048116826852524
4.20642e-07	0.106311	0.10534187439654019
4.21122e-07	0.107266	0.10584078722472276
4.21602e-07	0.108006	0.10630099759232334
4.22082e-07	0.108475	0.1067195957557569
4.22562e-07	0.108672	0.10709744841200079
4.23042e-07	0.108647	0.10743771937766437
4.23522e-07	0.108491	0.10774441720877878
4.24002e-07	0.108316	0.10802129478814182
4.24482e-07	0.108227	0.10827114848949516
4.24962e-07	0.108301	0.10849546752428532
4.25443e-07	0.108567	0.10869438467446657
4.25923e-07	0.108998	0.10886693563721295
4.26403e-07	0.109522	0.10901162913692165
4.26883e-07	0.110042	0.10912713650392465
4.27363e-07	0.110463	0.10921288121847453
4.27843e-07	0.110717	0.10926923308261152
4.28323e-07	0.110777	0.10929737871577865
4.28803e-07	0.110656	0.10929890533532784
4.29283e-07	0.110397	0.10927379833433873
4.29763e-07	0.110051	0.10922121195872428
4.30243e-07	0.109671	0.10914106565995008
4.30723e-07	0.109298	0.10903402023245747
4.31203e-07	0.108971	0.10890138494664543
4.31683e-07	0.108727	0.10874482511684594
4.32163e-07	0.108598	0.10856602903438485
4.32643e-07	0.108592	0.10836633012434828
4.33123e-07	0.108674	0.10814645614578225
4.33603e-07	0.108764	0.10790650728194329
4.34083e-07	0.108754	0.10764628100706704
4.34563e-07	0.108551	0.10736596594468309
4.35044e-07	0.108121	0.10706707896613286
4.35524e-07	0.107503	0.10675327100753809
4.36004e-07	0.10678	0.10643054172569054
4.36484e-07	0.106036	0.10610668304715394
4.36964e-07	0.105318	0.10579022951228914
4.37444e-07	0.104645	0.10548948406624832
4.37924e-07	0.104036	0.10521180798443314
4.38404e-07	0.103542	0.10496309827257617
4.38884e-07	0.10323	0.10474736736547152
4.39364e-07	0.103132	0.10456668878920088
4.39844e-07	0.103205	0.10442165900217487
4.40324e-07	0.103345	0.10431217598360626
4.40804e-07	0.103449	0.10423801495796094
4.41284e-07	0.103479	0.10419901677588048
4.41764e-07	0.103467	0.10419481179347372
4.42244e-07	0.103456	0.1042254875122988
4.42724e-07	0.103449	0.10429172887575323
4.43204e-07	0.103412	0.10439385660642374
4.43684e-07	0.103342	0.10453199423448255
4.44164e-07	0.103317	0.10470635992097947
4.44644e-07	0.103454	0.1049171480155331
4.45125e-07	0.103821	0.10516389238133173
4.45605e-07	0.104373	0.10544452314210176
4.46085e-07	0.105009	0.10575496459545894
4.46565e-07	0.105669	0.10608954479842105
4.47045e-07	0.106368	0.10644164120141947
4.47525e-07	0.107116	0.10680392195367468
4.48005e-07	0.107834	0.1071686800651772
4.48485e-07	0.108387	0.10752902468168793
4.48965e-07	0.108717	0.10788037462106491
4.49445e-07	0.108902	0.10822079458132965
4.49925e-07	0.109061	0.10854996539489892
4.50405e-07	0.109218	0.10886800503786763
4.50885e-07	0.10932	0.10917520878750184
4.51365e-07	0.109375	0.10947236280367355
4.51845e-07	0.109506	0.10976060745798234
4.52325e-07	0.109821	0.11004059918091541
4.52805e-07	0.110272	0.11031187414609311
4.53285e-07	0.110718	0.11057326698820288
4.53765e-07	0.111114	0.11082388318355092
4.54245e-07	0.111532	0.1110633903296531
4.54725e-07	0.111988	0.11129162258565856
4.55206e-07	0.112351	0.11150854929167858
4.55686e-07	0.112504	0.11171490911403281
4.56166e-07	0.112502	0.11191254183652248
4.56646e-07	0.112483	0.11210389400609763
4.57126e-07	0.112458	0.11229133557824736
4.57606e-07	0.112341	0.11247709255034219
4.58086e-07	0.11216	0.11266355020165209
4.58566e-07	0.112088	0.1128531271789906
4.59046e-07	0.112219	0.11304756694632885
4.59526e-07	0.112454	0.11324741586616757
4.60006e-07	0.112713	0.11345224545380052
4.60486e-07	0.113084	0.11366088844774146
4.60966e-07	0.113643	0.11387096108234274
4.61446e-07	0.114257	0.11407851671389681
4.61926e-07	0.114755	0.11427892527878979
4.62406e-07	0.115171	0.11446807383685734
4.62886e-07	0.115599	0.11464240068988543
4.63366e-07	0.115942	0.11479878328323316
4.63846e-07	0.116049	0.1149348765741825
4.64326e-07	0.115996	0.11504971145288315
4.64806e-07	0.115951	0.11514258497571216
4.65287e-07	0.115884	0.11521330339085976
4.65767e-07	0.115691	0.11526107324270819
4.66247e-07	0.11549	0.11528608841100467
4.66727e-07	0.115457	0.11528735373108775
4.67207e-07	0.115528	0.115264718424306
4.67687e-07	0.115555	0.11521686139085514
4.68167e-07	0.11562	0.1151436388139061
4.68647e-07	0.115824	0.11504388679181114
4.69127e-07	0.115997	0.11491676983239037
4.69607e-07	0.115968	0.1147605692155605
4.70087e-07	0.115858	0.11457435199037361
4.70567e-07	0.115733	0.11435722827849706
4.71047e-07	0.115396	0.11410858459470027
4.71527e-07	0.114819	0.11382913827783118
4.72007e-07	0.114234	0.1135219728294262
4.72487e-07	0.113659	0.11319122307781244
4.72967e-07	0.112949	0.11284174216776188
4.73447e-07	0.112231	0.11248014553434893
4.73927e-07	0.111713	0.1121134465632315
4.74407e-07	0.111279	0.11174674487810503
4.74887e-07	0.110809	0.11138414905192966
4.75368e-07	0.110495	0.11102986577614783
4.75848e-07	0.110359	0.11068658871759803
4.76328e-07	0.110137	0.11035562921973391
4.76808e-07	0.109861	0.11003928319198593
4.77288e-07	0.109697	0.109740581393513
4.77768e-07	0.109452	0.10946218218677455
4.78248e-07	0.109008	0.10920781717122902
4.78728e-07	0.108585	0.10898272904290907
4.79208e-07	0.108203	0.10879190081997102
4.79688e-07	0.107661	0.10863970602055381
4.80168e-07	0.107135	0.10853011013433088
4.80648e-07	0.10683	0.10846533636034462
4.81128e-07	0.10654	0.10844541980006203
4.81608e-07	0.10631	0.10846837615042858
4.82088e-07	0.106375	0.10853652630808483
4.82568e-07	0.106607	0.10865387546917733
4.83048e-07	0.10687	0.10882345407932423
4.83528e-07	0.107381	0.10904743723002751
4.84008e-07	0.108074	0.10932564730715497
4.84488e-07	0.108715	0.1096549366378682
4.84968e-07	0.109453	0.11003082065900689
4.85449e-07	0.110295	0.11044673305838203
4.85929e-07	0.110945	0.1108941527126547
4.86409e-07	0.111513	0.11136667965708977
4.86889e-07	0.112123	0.11185954014776345
4.87369e-07	0.112524	0.11236819330451041
4.87849e-07	0.112801	0.11289165586791375
4.88329e-07	0.113186	0.11343146563728901
4.88809e-07	0.113486	0.1139884142703414
4.89289e-07	0.113753	0.11456519496065194
4.89769e-07	0.114261	0.1151658255577969
4.90249e-07	0.114828	0.11579115744941557
4.90729e-07	0.115437	0.11644127476150654
4.91209e-07	0.116338	0.11711554260484011
4.91689e-07	0.117313	0.11780709365051391
4.92169e-07	0.118273	0.11850636471470219
4.92649e-07	0.119433	0.11920306989206511
4.93129e-07	0.120545	0.11988202614376817
4.93609e-07	0.121495	0.12052940353570725
4.94089e-07	0.122497	0.12113559126203546
4.94569e-07	0.123306	0.12169146269296195
4.9505e-07	0.123854	0.12219270888828365
4.9553e-07	0.124387	0.12263939612249856
4.9601e-07	0.124687	0.12303183953496515
4.9649e-07	0.124768	0.12337253583193131
4.9697e-07	0.124908	0.12366487786850412
4.9745e-07	0.12489	0.12391082566945456
4.9793e-07	0.124807	0.12411242498849072
4.9841e-07	0.1249	0.12427108674028613
4.9889e-07	0.124915	0.12438690254768531
4.9937e-07	0.124985	0.12445999696626137
4.9985e-07	0.12525	0.1244902118462109
5.0033e-07	0.125396	0.12447831727925492
5.0081e-07	0.125599	0.12442454658986785
5.0129e-07	0.125866	0.12432679149486604
5.0177e-07	0.12588	0.12418204715877121
5.0225e-07	0.125897	0.12398742339130284
5.0273e-07	0.12579	0.12373941887680677
5.0321e-07	0.125357	0.12343456414894088
5.0369e-07	0.124931	0.12307152417556541
5.0417e-07	0.124264	0.12264948896785631
5.0465e-07	0.123378	0.12217103121765839
5.05131e-07	0.122575	0.12164335911238172
5.05611e-07	0.121536	0.12107437526445733
5.06091e-07	0.120524	0.12047721474609455
5.06571e-07	0.119643	0.11986550869347876
5.07051e-07	0.118622	0.11925036677284763
5.07531e-07	0.117855	0.11864450659286811
5.08011e-07	0.11716	0.1180548257644738
5.08491e-07	0.116463	0.11748587831351065
5.08971e-07	0.116078	0.11694127949604528
5.09451e-07	0.115622	0.11641952844012927
5.09931e-07	0.11529	0.11592016732272928
5.10411e-07	0.115108	0.11544126629171483
5.10891e-07	0.114752	0.11497954760258443
5.11371e-07	0.114561	0.11453432630261765
5.11851e-07	0.114254	0.11410366278767947
5.12331e-07	0.113819	0.11368765007549995
5.12811e-07	0.113483	0.11328852560646863
5.13291e-07	0.112885	0.1129084421669825
5.13771e-07	0.112346	0.11255300835610933
5.14251e-07	0.111782	0.11222790581040618
5.14731e-07	0.111083	0.11193937010216326
5.15212e-07	0.110602	0.11169425299056503
5.15692e-07	0.11002	0.11149705466464573
5.16172e-07	0.109594	0.11135142229975663
5.16652e-07	0.10934	0.11125863052727854
5.17132e-07	0.109059	0.1112178864851427
5.17612e-07	0.109098	0.11122692597667917
5.18092e-07	0.109134	0.11128659804372132
5.18572e-07	0.109342	0.11140144252713403
5.19052e-07	0.109746	0.11157493329758418
5.19532e-07	0.110104	0.11180878557561255
5.20012e-07	0.110735	0.1121035553831661
5.20492e-07	0.111305	0.1124565195205881
5.20972e-07	0.111979	0.1128638076318253
5.21452e-07	0.112742	0.11331936953546727
5.21932e-07	0.11338	0.11381514439223257
5.22412e-07	0.114179	0.11434438359123222
5.22892e-07	0.114809	0.11489818994722573
5.23372e-07	0.115483	0.115470645764293
5.23852e-07	0.116134	0.11605585482465643
5.24332e-07	0.11666	0.1166489870838646
5.24812e-07	0.11731	0.11724793764584235
5.25293e-07	0.117806	0.1178491142953709
5.25773e-07	0.118419	0.11845194089086158
5.26253e-07	0.119015	0.11905424780813216
5.26733e-07	0.119602	0.11965442754281526
5.27213e-07	0.120321	0.12025124360478076
5.27693e-07	0.12093	0.12084146510890628
5.28173e-07	0.12168	0.12142387220949068
5.28653e-07	0.122336	0.12199517894192903
5.29133e-07	0.122994	0.12255387357869606
5.29613e-07	0.123651	0.1230986605908653
5.30093e-07	0.12415	0.12362852129094601
5.30573e-07	0.124714	0.12414482628183379
5.31053e-07	0.125078	0.12464806775537556
5.31533e-07	0.125483	0.1251412715560262
5.32013e-07	0.125796	0.12562668814689856
5.32493e-07	0.126064	0.12610741403392295
5.32973e-07	0.126414	0.1265867242844441
5.33453e-07	0.126656	0.12706649266307207
5.33933e-07	0.127102	0.12754942184084492
5.34413e-07	0.127458	0.12803508601619032
5.34893e-07	0.128018	0.12852334667322018
5.35374e-07	0.128585	0.12901038248361968
5.35854e-07	0.129238	0.12949093578407586
5.36334e-07	0.130015	0.12995719044437412
5.36814e-07	0.130717	0.1303985043057476
5.37294e-07	0.131597	0.13080443468297148
5.37774e-07	0.132276	0.13116277951049335
5.38254e-07	0.133086	0.1314647004866248
5.38734e-07	0.133648	0.13170255070647424
5.39214e-07	0.134207	0.13187325671447353
5.39694e-07	0.134554	0.13197665246952442
5.40174e-07	0.134735	0.13201567623324237
5.40654e-07	0.13479	0.13199518704426988
5.41134e-07	0.13455	0.13191196033579988
5.41614e-07	0.134282	0.13176029231023928
5.42094e-07	0.133675	0.13153566044744988
5.42574e-07	0.133111	0.13123727704679286
5.43054e-07	0.132258	0.13086680035477888
5.43534e-07	0.131479	0.1304315464459385
5.44014e-07	0.130535	0.1299410220018813
5.44494e-07	0.129656	0.12940904200246717
5.44974e-07	0.128762	0.1288496612545814
5.45455e-07	0.127895	0.128277132418036
5.45935e-07	0.127145	0.1277043688694335
5.46415e-07	0.12637	0.12714094270161683
5.46895e-07	0.125798	0.12659524848343157
5.47375e-07	0.125155	0.12607113864992614
5.47855e-07	0.124743	0.1255723358800193
5.48335e-07	0.124235	0.12509857806246522
5.48815e-07	0.123939	0.12465025825864627
5.49295e-07	0.123549	0.12422493320822425
5.49775e-07	0.123316	0.12382102840097223
5.50255e-07	0.123016	0.12343530860057146
5.50735e-07	0.1228	0.12306522835399634
5.51215e-07	0.122554	0.1227075741690844
5.51695e-07	0.122315	0.12235955201191608
5.52175e-07	0.122087	0.12201850711343115
5.52655e-07	0.121798	0.12168194850060252
5.53135e-07	0.121558	0.12134817996496658
5.53615e-07	0.121206	0.1210154806794105
5.54095e-07	0.120935	0.12068344420924484
5.54575e-07	0.120523	0.12035150099809405
5.55056e-07	0.120213	0.12002073223944255
5.55536e-07	0.119752	0.11969195220339479
5.56016e-07	0.119406	0.11936773076442904
5.56496e-07	0.118918	0.11905023156676327
5.56976e-07	0.118552	0.11874317286361677
5.57456e-07	0.118068	0.118449657938529
5.57936e-07	0.117709	0.11817387817683685
5.58416e-07	0.117272	0.11791914165438014
5.58896e-07	0.116959	0.11768928072795812
5.59376e-07	0.116612	0.11748694618724982
5.59856e-07	0.116382	0.11731507611149918
5.60336e-07	0.116155	0.11717497699376177
5.60816e-07	0.116028	0.11706876553554485
5.61296e-07	0.115926	0.11699599336064677
5.61776e-07	0.115895	0.11695842530678908
5.62256e-07	0.115896	0.11695385443139769
5.62736e-07	0.11594	0.11698460612167218
5.63216e-07	0.116016	0.1170503609781041
5.63696e-07	0.116122	0.11715423211803531
5.64176e-07	0.11626	0.11729589817299407
5.64656e-07	0.116435	0.11747688038197963
5.65137e-07	0.116652	0.11769684381811975
5.65617e-07	0.11692	0.11795595608906517
5.66097e-07	0.117244	0.11825338126926381
5.66577e-07	0.117627	0.11858798076663844
5.67057e-07	0.118089	0.11895778790698877
5.67537e-07	0.11859	0.11935991923268133
5.68017e-07	0.11919	0.11979077538219327
5.68497e-07	0.119784	0.12024539276644573
5.68977e-07	0.120489	0.12071865965150283
5.69457e-07	0.121128	0.12120402767775318
5.69937e-07	0.121872	0.12169596618008326
5.70417e-07	0.122493	0.1221879922066559
5.70897e-07	0.123191	0.12267591563626805
5.71377e-07	0.123728	0.12315536526661511
5.71857e-07	0.124308	0.1236248989713464
5.72337e-07	0.124705	0.12408334115682348
5.72817e-07	0.125137	0.12453234496559237
5.73297e-07	0.125377	0.12497363143600079
5.73777e-07	0.125687	0.12541136412089748
5.74257e-07	0.125817	0.12584917061004458
5.74737e-07	0.126077	0.12629280734041542
5.75218e-07	0.126203	0.1267468829721505
5.75698e-07	0.126501	0.12721781127454646
5.76178e-07	0.126747	0.12771047107434488
5.76658e-07	0.127169	0.12823082657799173
5.77138e-07	0.127615	0.12878300900909176
5.77618e-07	0.128229	0.129371084359279
5.78098e-07	0.128888	0.12999654815823172
5.78578e-07	0.12969	0.13065977724810357
5.79058e-07	0.130569	0.1313577669405041
5.79538e-07	0.131485	0.13208477051463363
5.80018e-07	0.132496	0.13283290467626382
5.80498e-07	0.133514	0.13359071972160805
5.80978e-07	0.134606	0.1343453763596797
5.81458e-07	0.13556	0.13508148878367815
5.81938e-07	0.136613	0.13578667048870066
5.82418e-07	0.137473	0.136446679140702
5.82898e-07	0.138422	0.13705216634310063
5.83378e-07	0.139127	0.13759342124184523
5.83858e-07	0.139896	0.1380663083043378
5.84338e-07	0.140393	0.13846730596523188
5.84818e-07	0.140919	0.1387975377941189
5.85299e-07	0.141173	0.13905869175543006
5.85779e-07	0.141418	0.1392555603108435
5.86259e-07	0.141425	0.13939248864462653
5.86739e-07	0.141393	0.13947602355221694
5.87219e-07	0.141192	0.13951086244698918
5.87699e-07	0.140933	0.1395027432434975
5.88179e-07	0.140597	0.13944996658117575
5.88659e-07	0.140195	0.13935556617008327
5.89139e-07	0.139813	0.13922323157177413
5.89619e-07	0.13936	0.13905836854214668
5.90099e-07	0.139007	0.13886687316413857
5.90579e-07	0.138577	0.13865450189420458
5.91059e-07	0.138294	0.1384268942156347
5.91539e-07	0.137928	0.1381882977358796
5.92019e-07	0.13772	0.13794253751999558
5.92499e-07	0.137429	0.13769164991242044
5.92979e-07	0.137273	0.13743729392029233
5.93459e-07	0.137044	0.13717954318130418
5.93939e-07	0.136904	0.13691824307618838
5.94419e-07	0.136716	0.13665211057619323
5.94899e-07	0.136553	0.13637969734966082
5.9538e-07	0.136382	0.13609898955763208
5.9586e-07	0.136161	0.13580772782809253
5.9634e-07	0.135981	0.13550372860074072
5.9682e-07	0.135683	0.1351843549372326
5.973e-07	0.135471	0.13484770973856258
5.9778e-07	0.135093	0.13449116488412727
5.9826e-07	0.134815	0.1341134501327614
5.9874e-07	0.134366	0.13371243312185024
5.9922e-07	0.133987	0.13328767129926794
5.997e-07	0.133482	0.13283810193831933
6.0018e-07	0.132972	0.1323641469214953
6.0066e-07	0.13243	0.13186643281375796
6.0114e-07	0.131787	0.13134606897205908
6.0162e-07	0.131221	0.1308056415390774
6.021e-07	0.130486	0.1302466319688276
6.0258e-07	0.1299	0.12967301267720166
6.0306e-07	0.129146	0.12908627548238222
6.0354e-07	0.128529	0.12849035780937096
6.0402e-07	0.127832	0.12788662097609652
6.045e-07	0.127185	0.1272773656027418
6.0498e-07	0.126587	0.12666364195528643
6.05461e-07	0.125929	0.1260452585598047
6.05941e-07	0.125425	0.12542268095493322
6.06421e-07	0.124792	0.12479339965509009
6.06901e-07	0.124327	0.12415685275971379
6.07381e-07	0.123743	0.12350928154307156
6.07861e-07	0.12324	0.12284878385497693
6.08341e-07	0.122682	0.12217173449744426
6.08821e-07	0.122068	0.12147523979110933
6.09301e-07	0.121469	0.12075726948973699
6.09781e-07	0.120698	0.1200152545600678
6.10261e-07	0.119974	0.11925030384131445
6.10741e-07	0.119046	0.11846265329152875
6.11221e-07	0.118144	0.11765791170360686
6.11701e-07	0.117104	0.11684191063615029
6.12181e-07	0.116041	0.11602508822933669
6.12661e-07	0.11497	0.11521957361874774
6.13141e-07	0.113837	0.11443851507334873
6.13621e-07	0.112836	0.11369686476327322
6.14101e-07	0.11178	0.11300603024974062
6.14581e-07	0.11093	0.1123776768005235
6.15062e-07	0.110099	0.11181808664748001
6.15542e-07	0.109444	0.11133200586395693
6.16022e-07	0.10892	0.11092046863365584
6.16502e-07	0.108481	0.11058228900615158
6.16982e-07	0.108268	0.11031506546101941
6.17462e-07	0.108056	0.11011459313605713
6.17942e-07	0.108081	0.10997698620909305
6.18422e-07	0.1081	0.10989735008201086
6.18902e-07	0.108257	0.10987161258043016
6.19382e-07	0.108483	0.10989745768921975
6.19862e-07	0.108687	0.10997761913194305
6.20342e-07	0.109047	0.11011276838488693
6.20822e-07	0.109282	0.11030265071444977
6.21302e-07	0.109666	0.11054675360469626
6.21782e-07	0.109965	0.11084381033630589
6.22262e-07	0.110289	0.11119317240164785
6.22742e-07	0.110687	0.1115946595076533
6.23222e-07	0.11097	0.1120481236559135
6.23702e-07	0.111463	0.1125558053289904
6.24182e-07	0.111845	0.11311859507834224
6.24662e-07	0.112401	0.11374036954517323
6.25143e-07	0.113037	0.11442392904675704
6.25623e-07	0.113685	0.11517211042048237
6.26103e-07	0.114627	0.11598943177758546
6.26583e-07	0.115495	0.11687477024976609
6.27063e-07	0.116651	0.11783027682131783
6.27543e-07	0.117857	0.11885018853685077
6.28023e-07	0.119111	0.11992690837462779
6.28503e-07	0.120606	0.12105102076536514
6.28983e-07	0.121946	0.12220235440113641
6.29463e-07	0.123503	0.12336676302246555
6.29943e-07	0.124955	0.12451992906848279
6.30423e-07	0.126337	0.12564228489617207
6.30903e-07	0.127796	0.12671762325746416
6.31383e-07	0.128956	0.12772759470969844
6.31863e-07	0.13019	0.12866605561595765
6.32343e-07	0.131189	0.129524832673595
6.32823e-07	0.132028	0.13030344630875515
6.33303e-07	0.132853	0.13100496870036696
6.33783e-07	0.133354	0.1316323226418049
6.34263e-07	0.133899	0.13219358461469385
6.34743e-07	0.134235	0.13269484941572493
6.35224e-07	0.134457	0.133144124616682
