lambda	signal	smoothed_signal_tv_0.5_1000	optima_preserving_denoising
4e-07	0.106123	0.10335327432878164	0.10280174295148392
4.0048e-07	0.10538	0.10335496436035499	0.10278809257398455
4.0096e-07	0.10475	0.1033583431825864	0.10276085662007606
4.0144e-07	0.104386	0.10336340827428821	0.10272035921340551
4.0192e-07	0.104346	0.10337015591210807	0.10266715130914789
4.024e-07	0.104575	0.103378581070026	0.10260196826021457
4.0288e-07	0.104931	0.10338867757473051	0.10252569761267098
4.0336e-07	0.105224	0.10340043793938325	0.10243937334884282
4.0384e-07	0.105278	0.10341385359455833	0.10234419698006147
4.0432e-07	0.10498	0.10342891465811237	0.10224157525655621
4.048e-07	0.104311	0.10344561023917984	0.10213315209907227
4.05281e-07	0.10335	0.10346392814665314	0.10202081406787508
4.05761e-07	0.102247	0.10348385526297481	0.10190665408839417
4.06241e-07	0.101181	0.10350537719434277	0.10179289593927626
4.06721e-07	0.100312	0.10352847871034772	0.10168179742057352
4.07201e-07	0.099741	0.10355314333956521	0.10157555745543202
4.07681e-07	0.0994877	0.10357935387046105	0.10147625207119032
4.08161e-07	0.0994859	0.10360709189650769	0.10138580517193371
4.08641e-07	0.0996066	0.10363633837322896	0.1013059942761414
4.09121e-07	0.0996964	0.10366707311737816	0.10123846511377159
4.09601e-07	0.0996204	0.10369927541452169	0.10118474617781298
4.10081e-07	0.0992988	0.10373292347713696	0.10114623186066428
4.10561e-07	0.0987276	0.10376799509674656	0.10112415243794799
4.11041e-07	0.0979821	0.10380446706603413	0.1011195094459781
4.11521e-07	0.0971992	0.10384231586923978	0.10113260613795236
4.12001e-07	0.0965371	0.1038815170735515	0.10116416812154731
4.12481e-07	0.0961238	0.10392204605125994	0.10121503127015155
4.12961e-07	0.0960335	0.10396387734576408	0.10128588192402771
4.13441e-07	0.0963012	0.10400698541885939	0.10137721579409645
4.13921e-07	0.0968903	0.10405134399670228	0.10148925307186198
4.14401e-07	0.0976649	0.10409692683556995	0.10162189110075034
4.14881e-07	0.0985275	0.10414370705306282	0.10177467725047847
4.15362e-07	0.0993428	0.10419165790572439	0.1019468222427371
4.15842e-07	0.100028	0.10424075211063111	0.10213724692723099
4.16322e-07	0.100539	0.10429096262839334	0.10234465003547968
4.16802e-07	0.100894	0.10434226198009353	0.10256757081187787
4.17282e-07	0.101163	0.10439462302940139	0.10280443075392653
4.17762e-07	0.101443	0.104448018299581	0.10305353853456026
4.18242e-07	0.101833	0.10450242074873947	0.1033130683221728
4.18722e-07	0.102407	0.10455780309133984	0.10358102319785849
4.19202e-07	0.103192	0.10461413856095626	0.10385520758258282
4.19682e-07	0.104161	0.10467140024041001	0.10413323027087631
4.20162e-07	0.105237	0.10472956180682	0.10441255137772512
4.20642e-07	0.106311	0.10478859687413071	0.10469057231317563
4.21122e-07	0.107266	0.10484847971571785	0.10496475204739021
4.21602e-07	0.108006	0.10490918462270708	0.10523272282067786
4.22082e-07	0.108475	0.10497068659991232	0.10549237689617993
4.22562e-07	0.108672	0.10503296074296091	0.10574190787577493
4.23042e-07	0.108647	0.10509598290389847	0.10597980313220762
4.23522e-07	0.108491	0.10515972908974479	0.10620479930713403
4.24002e-07	0.108316	0.10522417609468608	0.10641582075743018
4.24482e-07	0.108227	0.10528930092229319	0.10661191834745412
4.24962e-07	0.108301	0.10535508138183024	0.10679223084911468
4.25443e-07	0.108567	0.10542149553597714	0.10695597115791398
4.25923e-07	0.108998	0.1054885222594049	0.10710244731115379
4.26403e-07	0.109522	0.10555614071346192	0.10723109885314078
4.26883e-07	0.110042	0.10562433086579098	0.10734154716972089
4.27363e-07	0.110463	0.10569307299306802	0.1074336241204777
4.27843e-07	0.110717	0.10576234816105477	0.10750739235708182
4.28323e-07	0.110777	0.10583213775612128	0.10756312482622507
4.28803e-07	0.110656	0.10590242392573378	0.10760128684872708
4.29283e-07	0.110397	0.10597318913914967	0.10762248973837184
4.29763e-07	0.110051	0.1060444165889238	0.10762747292534779
4.30243e-07	0.109671	0.10611608978083904	0.10761676853578192
4.30723e-07	0.109298	0.10618819289756674	0.10759099872649867
4.31203e-07	0.108971	0.10626071041758778	0.10755105726211608
4.31683e-07	0.108727	0.10633362744265845	0.107498006196315
4.32163e-07	0.108598	0.10640692934518564	0.10743304351419716
4.32643e-07	0.108592	0.10648060206162058	0.1073574814559245
4.33123e-07	0.108674	0.10655463176747706	0.1072727155447693
4.33603e-07	0.108764	0.1066290051391971	0.10718021361611649
4.34083e-07	0.108754	0.1067037090557428	0.10708151240785523
4.34563e-07	0.108551	0.10677873083184383	0.1069782326294064
4.35044e-07	0.108121	0.10685405794485117	0.10687208966790412
4.35524e-07	0.107503	0.10692967824258347	0.10676489079374335
4.36004e-07	0.10678	0.10700557969390265	0.10665850496198724
4.36484e-07	0.106036	0.10708175057462171	0.10655481441765141
4.36964e-07	0.105318	0.10715817924004833	0.10645566158197481
4.37444e-07	0.104645	0.10723485429259805	0.10636280422801762
4.37924e-07	0.104036	0.10731176437435187	0.10627788246152699
4.38404e-07	0.103542	0.10738889832013575	0.10620238793948784
4.38884e-07	0.10323	0.1074662449679518	0.1061376404858842
4.39364e-07	0.103132	0.10754379330133779	0.10608476797316169
4.39844e-07	0.103205	0.10762153227535867	0.10604471383459155
4.40324e-07	0.103345	0.1076994509520507	0.10601824662494995
4.40804e-07	0.103449	0.10777753833950135	0.1060059860940731
4.41284e-07	0.103479	0.10785578352411314	0.1060083768398679
4.41764e-07	0.103467	0.10793417552015754	0.10602580228726413
4.42244e-07	0.103456	0.10801270340246819	0.10605872168452879
4.42724e-07	0.103449	0.1080913561637279	0.10610745810486996
4.43204e-07	0.103412	0.10817012285102467	0.10617218543780685
4.43684e-07	0.103342	0.10824899242802355	0.10625294852711484
4.44164e-07	0.103317	0.10832795391859566	0.10634966272651919
4.44644e-07	0.103454	0.10840699627094105	0.10646211557781277
4.45125e-07	0.103821	0.1084861085112381	0.10658993151112231
4.45605e-07	0.104373	0.10856527960672073	0.10673254528845193
4.46085e-07	0.105009	0.10864449863199989	0.1068891964538341
4.46565e-07	0.105669	0.10872375462806227	0.10705896225059981
4.47045e-07	0.106368	0.10880303678359371	0.10724078940030751
4.47525e-07	0.107116	0.10888233428685933	0.10743350922323987
4.48005e-07	0.107834	0.10896163652401838	0.10763585276324716
4.48485e-07	0.108387	0.10904093292087023	0.1078465079007789
4.48965e-07	0.108717	0.10912021315979868	0.10806420787625423
4.49445e-07	0.108902	0.10919946700842717	0.10828778916882033
4.49925e-07	0.109061	0.10927868455647552	0.10851617884655015
4.50405e-07	0.109218	0.10935785602846297	0.10874835169082081
4.50885e-07	0.10932	0.1094369720414091	0.1089833258734281
4.51365e-07	0.109375	0.1095160233988564	0.10922019455515827
4.51845e-07	0.109506	0.10959500137000634	0.10945812520188217
4.52325e-07	0.109821	0.10967389746250618	0.10969629866731226
4.52805e-07	0.110272	0.10975270372328666	0.10993385406394093
4.53285e-07	0.110718	0.10983141248777015	0.11016991329682882
4.53765e-07	0.111114	0.109910016702375	0.11040365182410512
4.54245e-07	0.111532	0.1099885096480538	0.11063431925752651
4.54725e-07	0.111988	0.11006688528415448	0.11086120026664081
4.55206e-07	0.112351	0.11014513794448788	0.11108360433366724
4.55686e-07	0.112504	0.11022326270199209	0.11130092189275365
4.56166e-07	0.112502	0.11030125503585421	0.11151266713217477
4.56646e-07	0.112483	0.11037911121621521	0.11171843638033996
4.57126e-07	0.112458	0.11045682794122932	0.11191783700756015
4.57606e-07	0.112341	0.11053440274087377	0.11211047378450012
4.58086e-07	0.11216	0.11061183358321602	0.11229597783233426
4.58566e-07	0.112088	0.11068911929625723	0.11247398280147403
4.59046e-07	0.112219	0.11076625914308758	0.1126440587843294
4.59526e-07	0.112454	0.11084325326059415	0.1128056802628337
4.60006e-07	0.112713	0.1109201022036122	0.1129582763542615
4.60486e-07	0.113084	0.11099680739926615	0.11310125682839507
4.60966e-07	0.113643	0.11107337066066235	0.11323400292474815
4.61446e-07	0.114257	0.11114979465560487	0.11335585172352719
4.61926e-07	0.114755	0.11122608239081604	0.11346616937370148
4.62406e-07	0.115171	0.11130223769377327	0.11356438151822587
4.62886e-07	0.115599	0.11137826466887918	0.11364999574484515
4.63366e-07	0.115942	0.1114541681911987	0.11372255364121127
4.63846e-07	0.116049	0.11152995333642281	0.11378170450331668
4.64326e-07	0.115996	0.11160562588534217	0.11382715962375733
4.64806e-07	0.115951	0.1116811917298488	0.11385874953745521
4.65287e-07	0.115884	0.11175665738705885	0.11387631564087347
4.65767e-07	0.115691	0.1118320293839668	0.11387983357088263
4.66247e-07	0.11549	0.1119073147802205	0.1138692956069136
4.66727e-07	0.115457	0.11198252053437412	0.11384468252685434
4.67207e-07	0.115528	0.11205765403441828	0.11380598078907843
4.67687e-07	0.115555	0.11213272244886399	0.11375334736989283
4.68167e-07	0.11562	0.11220773326423304	0.11368698838085534
4.68647e-07	0.115824	0.11228269362443871	0.1136072787136699
4.69127e-07	0.115997	0.11235761087454238	0.11351463641592134
4.69607e-07	0.115968	0.11243249189207141	0.11340963857628855
4.70087e-07	0.115858	0.11250734363644105	0.1132929972386566
4.70567e-07	0.115733	0.11258217247596167	0.1131656072622512
4.71047e-07	0.115396	0.11265698474240582	0.11302849184300229
4.71527e-07	0.114819	0.11273178605750202	0.11288289487293829
4.72007e-07	0.114234	0.11280658189219105	0.11273027728829324
4.72487e-07	0.113659	0.11288137689637959	0.11257225872567511
4.72967e-07	0.112949	0.112956175462474	0.11241058280428266
4.73447e-07	0.112231	0.11303098106207372	0.11224715469718438
4.73927e-07	0.111713	0.11310579681339171	0.11208396789620972
4.74407e-07	0.111279	0.11318062482840593	0.11192300740627581
4.74887e-07	0.110809	0.113255466783771	0.11176626161799394
4.75368e-07	0.110495	0.1133303232817193	0.11161574083301197
4.75848e-07	0.110359	0.1134051944240369	0.11147338892568932
4.76328e-07	0.110137	0.11348007918971731	0.11134106682783976
4.76808e-07	0.109861	0.1135549760115174	0.11122061171705651
4.77288e-07	0.109697	0.11362988217302168	0.11111380415018439
4.77768e-07	0.109452	0.11370479438721123	0.11102230257894563
4.78248e-07	0.109008	0.11377970821520263	0.11094767316409895
4.78728e-07	0.108585	0.11385461864615593	0.11089136204899112
4.79208e-07	0.108203	0.11392951953951806	0.11085463551252726
4.79688e-07	0.107661	0.11400440420546851	0.11083854533926892
4.80168e-07	0.107135	0.11407926487203109	0.11084375239811807
4.80648e-07	0.10683	0.11415409326511129	0.11087063773908523
4.81128e-07	0.10654	0.1142288801013535	0.1109202483676461
4.81608e-07	0.10631	0.11430361566666714	0.11099351573619173
4.82088e-07	0.106375	0.11437828933520876	0.11109127233411342
4.82568e-07	0.106607	0.11445289014513037	0.11121414956483092
4.83048e-07	0.10687	0.11452740634356892	0.11136257528832798
4.83528e-07	0.107381	0.11460182595818541	0.11153676202393001
4.84008e-07	0.108074	0.11467613636755915	0.11173662153000127
4.84488e-07	0.108715	0.11475032486692645	0.11196172739816274
4.84968e-07	0.109453	0.11482437826291539	0.112211410381206
4.85449e-07	0.110295	0.1148982834317443	0.11248468368351344
4.85929e-07	0.110945	0.11497202693680475	0.11278023326877437
4.86409e-07	0.111513	0.11504559557744971	0.11309661521873435
4.86889e-07	0.112123	0.11511897602754788	0.11343223186355944
4.87369e-07	0.112524	0.11519215537288506	0.1137852670789821
4.87849e-07	0.112801	0.11526512076848143	0.11415390189168587
4.88329e-07	0.113186	0.11533785996255315	0.11453628841942654
4.88809e-07	0.113486	0.11541036097011322	0.11493037539405729
4.89289e-07	0.113753	0.11548261258139854	0.11533407982159752
4.89769e-07	0.114261	0.11555460404907156	0.11574525782793824
4.90249e-07	0.114828	0.11562632557901548	0.11616146089177479
4.90729e-07	0.115437	0.1156977680283226	0.1165801057718425
4.91209e-07	0.116338	0.11576892337640053	0.11699850608422337
4.91689e-07	0.117313	0.11583978443087735	0.11741365897717448
4.92169e-07	0.118273	0.11591034527704648	0.11782248319093268
4.92649e-07	0.119433	0.11598060098884082	0.118221941956905
4.93129e-07	0.120545	0.11605054805477438	0.11860889580006403
4.93609e-07	0.121495	0.1161201840912362	0.11898037920135901
4.94089e-07	0.122497	0.11618950824326328	0.11933372990876814
4.94569e-07	0.123306	0.11625852089757893	0.11966644293574755
4.9505e-07	0.123854	0.11632722405675183	0.1199763829630206
4.9553e-07	0.124387	0.11639562104964857	0.12026181327415196
4.9601e-07	0.124687	0.11646371687779487	0.12052121814626676
4.9649e-07	0.124768	0.1165315179212234	0.12075342450772122
4.9697e-07	0.124908	0.1165990322561515	0.12095755045629793
4.9745e-07	0.12489	0.11666626935457465	0.12113286001428791
4.9793e-07	0.124807	0.11673324037270526	0.12127885273169332
4.9841e-07	0.1249	0.11679995784308245	0.12139521315691697
4.9889e-07	0.124915	0.116866435933571	0.12148175775172393
4.9937e-07	0.124985	0.11693269013121868	0.12153852003796613
4.9985e-07	0.12525	0.11699873747198743	0.12156572531289114
5.0033e-07	0.125396	0.11706459621607962	0.1215638150491748
5.0081e-07	0.125599	0.11713028604895584	0.1215330081816634
5.0129e-07	0.125866	0.1171958277483603	0.12147329052998745
5.0177e-07	0.12588	0.11726124335756223	0.12138480258986804
5.0225e-07	0.125897	0.117326555844826	0.12126790028377651
5.0273e-07	0.12579	0.11739178925018759	0.12112312758705038
5.0321e-07	0.125357	0.11745696833862462	0.12095125821311013
5.0369e-07	0.124931	0.11752211872203595	0.120753399723505
5.0417e-07	0.124264	0.11758726650785865	0.12053090082991257
5.0465e-07	0.123378	0.11765243839824865	0.12028546612921062
5.05131e-07	0.122575	0.11771766133635411	0.1200191755969432
5.05611e-07	0.121536	0.1177829625849895	0.11973430935099517
5.06091e-07	0.120524	0.11784836937319625	0.1194335128197935
5.06571e-07	0.119643	0.11791390895695325	0.11911960910069776
5.07051e-07	0.118622	0.11797960826902736	0.11879547615173217
5.07531e-07	0.117855	0.11804549396446194	0.11846419126311189
5.08011e-07	0.11716	0.1181115920770315	0.11812870349634516
5.08491e-07	0.116463	0.1181779280523918	0.11779192254181137
5.08971e-07	0.116078	0.11824452641469692	0.11745674236072944
5.09451e-07	0.115622	0.11831141079037338	0.11712578545389458
5.09931e-07	0.11529	0.11837860358862892	0.11680166977926437
5.10411e-07	0.115108	0.11844612601882508	0.1164868544290586
5.10891e-07	0.114752	0.11851399778869998	0.11618362013566041
5.11371e-07	0.114561	0.11858223711825724	0.11589427909990378
5.11851e-07	0.114254	0.11865086045953734	0.11562094075261428
5.12331e-07	0.113819	0.11871988250981402	0.11536567853247004
5.12811e-07	0.113483	0.11878931595667978	0.11513050382601576
5.13291e-07	0.112885	0.11885917149314588	0.11491722236036923
5.13771e-07	0.112346	0.11892945759165725	0.11472758181968554
5.14251e-07	0.111782	0.11900018052343055	0.11456308540644283
5.14731e-07	0.111083	0.11907134416478637	0.11442500919889598
5.15212e-07	0.110602	0.11914295002273549	0.11431440438861448
5.15692e-07	0.11002	0.11921499707671528	0.11423198923669395
5.16172e-07	0.109594	0.11928748181205333	0.11417822634294655
5.16652e-07	0.10934	0.11936039809982653	0.11415327851572951
5.17132e-07	0.109059	0.11943373723940125	0.11415699549937784
5.17612e-07	0.109098	0.11950748787870465	0.11418937075165798
5.18092e-07	0.109134	0.11958163606656927	0.11425104190132333
5.18572e-07	0.109342	0.11965616521522647	0.11434247934231828
5.19052e-07	0.109746	0.11973105616268023	0.1144639475599262
5.19532e-07	0.110104	0.1198062871787114	0.11461545823462185
5.20012e-07	0.110735	0.11988183403698136	0.11479681930583249
5.20492e-07	0.111305	0.11995767006528385	0.11500751350371619
5.20972e-07	0.111979	0.1200337662265451	0.11524681223206049
5.21452e-07	0.112742	0.12011009121348827	0.1155137130627186
5.21932e-07	0.11338	0.1201866115371643	0.1158069439001922
5.22412e-07	0.114179	0.12026329166561447	0.11612511483705729
5.22892e-07	0.114809	0.12034009411804734	0.11646655768625845
5.23372e-07	0.115483	0.12041697964650895	0.11682958281301703
5.23852e-07	0.116134	0.12049390733332727	0.11721235858852
5.24332e-07	0.11666	0.12057083481423894	0.11761298692356854
5.24812e-07	0.11731	0.12064771837626584	0.11802962382293304
5.25293e-07	0.117806	0.12072451322021156	0.11846027693556818
5.25773e-07	0.118419	0.12080117355572617	0.11890307973758504
5.26253e-07	0.119015	0.1208776529005864	0.11935604687075255
5.26733e-07	0.119602	0.12095390416935302	0.11981721083380631
5.27213e-07	0.120321	0.12102988000639571	0.12028462294613489
5.27693e-07	0.12093	0.12110553286426248	0.12075621061908126
5.28173e-07	0.12168	0.12118081536701074	0.12123003400622691
5.28653e-07	0.122336	0.12125568037419761	0.12170402551570342
5.29133e-07	0.122994	0.12133008137074085	0.12217624044878195
5.29613e-07	0.123651	0.12140397251230825	0.12264475670751904
5.30093e-07	0.12415	0.12147730903766137	0.12310767831295234
5.30573e-07	0.124714	0.12155004729117644	0.12356329396166307
5.31053e-07	0.125078	0.12162214515342488	0.1240098436733805
5.31533e-07	0.125483	0.12169356203659992	0.1244457779618896
5.32013e-07	0.125796	0.12176425932896331	0.12486951099130598
5.32493e-07	0.126064	0.12183420035908195	0.1252795441583255
5.32973e-07	0.126414	0.12190335084972258	0.12567441433068555
5.33453e-07	0.126656	0.12197167884701977	0.1260525847639321
5.33933e-07	0.127102	0.12203915517942883	0.12641261238245455
5.34413e-07	0.127458	0.12210575334824866	0.12675290666217953
5.34893e-07	0.128018	0.12217144998734653	0.12707198249811846
5.35374e-07	0.128585	0.12223622471184088	0.12736827038054174
5.35854e-07	0.129238	0.12230006057448857	0.12764029465376847
5.36334e-07	0.130015	0.12236294386978695	0.12788665849371988
5.36814e-07	0.130717	0.12242486458315978	0.12810607171102598
5.37294e-07	0.131597	0.12248581614825794	0.12829749229193327
5.37774e-07	0.132276	0.1225457958853898	0.12846004469977487
5.38254e-07	0.133086	0.12260480471037566	0.12859319895686852
5.38734e-07	0.133648	0.12266284755903584	0.12869666061310486
5.39214e-07	0.134207	0.12271993304657472	0.1287704812599663
5.39694e-07	0.134554	0.12277607387535933	0.1288149706386466
5.40174e-07	0.134735	0.12283128644446255	0.12883071463282908
5.40654e-07	0.13479	0.12288559123842843	0.12881840457986313
5.41134e-07	0.13455	0.12293901238727888	0.1287779404555201
5.41614e-07	0.134282	0.12299157803446144	0.1287091920253472
5.42094e-07	0.133675	0.1230433198483067	0.12861226457210875
5.42574e-07	0.133111	0.1230942733678813	0.12848757202354302
5.43054e-07	0.132258	0.1231444774675611	0.12833579708124093
5.43534e-07	0.131479	0.1231939746800585	0.12815798686715
5.44014e-07	0.130535	0.12324281061643558	0.1279554451705443
5.44494e-07	0.129656	0.12329103426613196	0.12772980164558997
5.44974e-07	0.128762	0.12333869737537097	0.12748288974629068
5.45455e-07	0.127895	0.12338585472457202	0.12721673983550727
5.45935e-07	0.127145	0.123432563468689	0.12693351524148133
5.46415e-07	0.12637	0.12347888339294275	0.12663540705910792
5.46895e-07	0.125798	0.12352487621916274	0.12632467821506677
5.47375e-07	0.125155	0.12357060584131101	0.12600347126005193
5.47855e-07	0.124743	0.12361613760236675	0.12567396080093884
5.48335e-07	0.124235	0.12366153851162488	0.12533811460908095
5.48815e-07	0.123939	0.1237068764970596	0.12499790927905692
5.49295e-07	0.123549	0.12375222060686134	0.12465509319478205
5.49775e-07	0.123316	0.12379764024253183	0.12431140592878698
5.50255e-07	0.123016	0.12384320534756596	0.12396839018598424
5.50735e-07	0.1228	0.12388898562676175	0.12362756040494291
5.51215e-07	0.122554	0.12393505072535135	0.12329029472159587
5.51695e-07	0.122315	0.12398146944015169	0.12295792592868754
5.52175e-07	0.122087	0.12402830989279554	0.12263171954137783
5.52655e-07	0.121798	0.12407563873839927	0.12231288057179987
5.53135e-07	0.121558	0.12412352133683616	0.12200260647815692
5.53615e-07	0.121206	0.12417202096455678	0.12170202265848216
5.54095e-07	0.120935	0.1242211989880771	0.1214122861158378
5.54575e-07	0.120523	0.12427111408445608	0.12113447380773577
5.55056e-07	0.120213	0.12432182242133814	0.12086970639957456
5.55536e-07	0.119752	0.12437337689137296	0.1206190227277153
5.56016e-07	0.119406	0.12442582730325336	0.12038349023455794
5.56496e-07	0.118918	0.1244792196350593	0.12016409898409472
5.56976e-07	0.118552	0.12453359624076614	0.11996182357284667
5.57456e-07	0.118068	0.12458899512711345	0.1197775780985479
